# s I dI
0.008144657924 2.23034249 0.203775154
0.009102852805 3.17035228 0.125484534
0.01006104769 3.08014816 0.0764413675
0.01101924257 2.6419264 0.0577310305
0.01197743872 2.32692485 0.0473245421
0.0129356336 2.07153794 0.0418374323
0.01389382849 1.83662938 0.0363516169
0.01485202337 1.64946004 0.0332026015
0.01581021825 1.55493581 0.0308720116
0.01676841361 1.3261381 0.0272662382
0.01772660753 1.20133287 0.0257375498
0.01868480305 1.12645845 0.0235482428
0.01964299857 1.0265897 0.0220882533
0.0206011925 0.932526617 0.0204976435
0.02155938801 0.830566429 0.019033061
0.02251758194 0.764609403 0.0180120364
0.02347578064 0.700976569 0.016405893
0.02443397457 0.639009089 0.0156237983
0.02539217009 0.60049492 0.0147730776
0.02635036401 0.546583897 0.0138136636
0.02730855953 0.480749755 0.0130090591
0.02826675505 0.453624316 0.0123515022
0.02922494897 0.398285817 0.011785933
0.03018314449 0.387661632 0.0111301845
0.03114133842 0.334179663 0.0103703834
0.03209953394 0.323586401 0.00999480024
0.03305772945 0.294669313 0.00950251447
0.03401592338 0.251601027 0.00906202611
0.0349741189 0.225447821 0.00838627795
0.03593231442 0.2276812 0.00816584085
0.03689050834 0.207668258 0.007758914
0.03784870386 0.188539944 0.00742451278
0.03880690097 0.158158058 0.00716900724
0.03976509649 0.142671031 0.00658119663
0.04072329042 0.133203061 0.00640153866
0.04168148593 0.12272148 0.00622375088
0.04263967986 0.106358968 0.00574694722
0.04359787538 0.0931473367 0.00561429872
0.0445560709 0.0811787405 0.00521914598
0.04551426482 0.0823412694 0.00522933551
0.04647246034 0.0809264904 0.00490828247
0.04743065427 0.071753223 0.00486103448
0.04838884978 0.0680163854 0.00484661479
0.0493470453 0.0675699309 0.00476114458
0.05030523923 0.0535012928 0.00446748345
0.05126343475 0.0575101452 0.0043511751
0.05222163027 0.063748575 0.00450251408
0.05317982419 0.0595687757 0.00444280084
0.05413801971 0.0531653637 0.00423918097
0.05509621364 0.0517419871 0.00426276713
0.05605440915 0.0542690689 0.00423687104
0.05701260467 0.0591858429 0.00424001279
0.0579707986 0.0531142682 0.00415448031
0.05892899412 0.05105991 0.00416653457
0.05988718804 0.051775388 0.00419699288
0.06084538356 0.0511779741 0.00406769828
0.06180358385 0.0542096243 0.00429294963
0.06276177778 0.0480457751 0.0040643742
0.0637199733 0.0465889075 0.00403889394
0.06467816882 0.0582275585 0.00417516856
0.06563636274 0.049331968 0.00414035366
0.06659455826 0.0529849908 0.00421298571
0.06755275219 0.0585398255 0.00406735057
0.0685109477 0.0581510748 0.00414536096
0.06946914322 0.0599811567 0.00405607965
0.07042733715 0.0626030374 0.00419139311
0.07138553267 0.0560298102 0.004233346
0.07234372659 0.0602948821 0.00410655228
0.07330192211 0.0614307838 0.00424010824
0.07426011763 0.0661765108 0.00413950945
0.07521831156 0.0638862218 0.00407536391
0.07617650707 0.0653448973 0.00409069299
0.07713470259 0.0674900584 0.00394069028
0.07809289652 0.0723275338 0.00390420995
0.07905109204 0.0708147538 0.00390384253
0.08000929074 0.0746981552 0.0038698701
0.08096748148 0.0770714784 0.00384344715
0.08192568177 0.0753315958 0.00377502874
0.08288387093 0.072082818 0.00383436802
0.08384207122 0.0821071754 0.00378783728
0.08480026037 0.0828983206 0.00377874112
0.08575846066 0.0838076893 0.00375474328
0.08671665141 0.0829985342 0.00377442265
0.08767485011 0.0843234406 0.00379557636
0.08863304085 0.0872303521 0.00370351301
0.08959124114 0.0863050754 0.00382473957
0.09054943029 0.0886404148 0.00374582982
0.09150763059 0.0942911529 0.00379576618
0.09246581974 0.0893792477 0.00368173929
0.09342402003 0.0900796956 0.00365905362
0.09438221077 0.0879542694 0.0036891977
0.09534040948 0.0878748011 0.00358231536
0.09629860022 0.0910375629 0.00362801378
0.09725679892 0.0965610967 0.00361892369
0.09821498966 0.0969858107 0.00361995814
0.09917318996 0.0966783223 0.00365153082
0.1001313791 0.0941341606 0.003557969
0.1010895794 0.0982081359 0.00357022022
0.1020477701 0.0978775608 0.00348180754
0.1030059688 0.0955261032 0.0035230825
0.1039641596 0.0942509118 0.00358447928
0.1049223583 0.097171389 0.00356683976
0.105880549 0.100499634 0.00358413697
0.1068387493 0.101633357 0.00350983198
0.107796948 0.102827991 0.00355032119
0.1087551388 0.098918588 0.00347421341
0.1097133375 0.0987662 0.00341493432
0.1106715282 0.0964223092 0.0033982374
0.1116297285 0.0962112649 0.0033369322
0.1125879177 0.100253202 0.00340613129
0.113546118 0.0977130792 0.00339139172
0.1145043087 0.10472025 0.00343278525
0.1154625074 0.0983693664 0.0033537175
0.1164206981 0.10531563 0.00331289065
0.1173788968 0.106102385 0.00333352405
0.1183370876 0.102956382 0.0033430731
0.1192952879 0.105709675 0.00334083338
0.120253477 0.10541894 0.00329319531
0.1212116773 0.108557681 0.0033199219
0.1221698665 0.104941683 0.00330078669
0.1231280668 0.1057291 0.00327720101
0.1240862575 0.102730795 0.0032439052
0.1250444562 0.110592256 0.00335699682
0.126002647 0.107984857 0.00324910399
0.1269608457 0.108511947 0.00320309012
0.1279190364 0.108666958 0.00325210867
0.1288772367 0.105743333 0.00321382834
0.1298354258 0.105261799 0.00327134476
0.1307936261 0.102916724 0.00323694257
0.1317518169 0.102675841 0.00327060987
0.1327100156 0.108506279 0.0032859218
0.1336682063 0.106459406 0.00326442501
0.134626405 0.105466761 0.00327226986
0.1355845958 0.100254502 0.00330121425
0.1365427961 0.0982763314 0.00324025237
0.1375009852 0.102603302 0.00324358957
0.1384591855 0.102308356 0.00325874014
0.1394173842 0.100606609 0.00321419625
0.1403755749 0.100427197 0.00324371841
0.1413337752 0.0997924852 0.00324929771
0.1422919644 0.095418033 0.00319393271
0.1432501647 0.093389895 0.00317223686
0.1442083554 0.0932537257 0.00315195622
0.1451665541 0.0949275182 0.00316671686
0.1461247449 0.0967267786 0.00317914197
0.1470829436 0.0926265673 0.00310730933
0.1480411343 0.0957198981 0.00308861999
0.1489993346 0.0920514471 0.0029953979
0.1499575238 0.0950065275 0.00306047441
0.1509157241 0.0925501724 0.00295490428
0.1518739148 0.0927776499 0.002999872
0.1528321135 0.0963585488 0.00297985574
0.1537903042 0.095845855 0.00292052248
0.1547485029 0.0922242331 0.00293966565
0.1557066937 0.0901174533 0.00287332359
0.156664894 0.095495843 0.00295463004
0.1576230831 0.0951490161 0.00291347062
0.1585812834 0.0952074154 0.00288948965
0.1595394773 0.0962524425 0.00290931638
0.1604976697 0.100321651 0.00292599203
0.161455862 0.0985319927 0.00290884701
0.1624140703 0.105834708 0.00297251162
0.1633722626 0.108425301 0.00298157242
0.164330439 0.115835276 0.00301651577
0.1652886473 0.118169066 0.00300721738
0.1662468396 0.118583754 0.00305537157
0.1672050479 0.125479756 0.00303764638
0.1681632243 0.136439728 0.00311940291
0.1691214166 0.140346042 0.00317414023
0.1700796249 0.149345347 0.00320446384
0.1710378172 0.157589995 0.00328463943
0.1719960254 0.166333997 0.00327773872
0.1729542019 0.170929128 0.00338958483
0.1739123942 0.178987194 0.00338563075
0.1748706025 0.194299446 0.0034841151
0.1758287948 0.211176299 0.00359037297
0.1767869871 0.215105924 0.0035933183
0.1777451795 0.231956795 0.00369379408
0.1787033877 0.250524734 0.00378053061
0.17966158 0.261985187 0.00383880693
0.1806197565 0.276920272 0.00393376299
0.1815779647 0.294896598 0.00401349582
0.182536157 0.313828643 0.00411336379
0.1834943653 0.337274624 0.00421607899
0.1844525417 0.355211923 0.00430587903
0.1854107341 0.383888243 0.00444801814
0.1863689423 0.397549902 0.00446744663
0.1873271346 0.422514923 0.00460075034
0.188285327 0.450000727 0.00471929504
0.1892435193 0.483694429 0.00485312976
0.1902017276 0.50913877 0.00496010491
0.1911599199 0.538559419 0.00504276627
0.1921180963 0.563954631 0.00515648456
0.1930763046 0.586898489 0.00522127303
0.1940344969 0.60658524 0.0052976746
0.1949927051 0.625299427 0.00536152362
0.1959508816 0.656952908 0.00546520046
0.1969090739 0.672003835 0.00550656426
0.1978672822 0.682647256 0.00553852035
0.1988254745 0.698474977 0.005597839
0.1997836827 0.70918112 0.00561794178
0.2007418592 0.721571496 0.00563026402
0.2017000515 0.727052182 0.00564792509
0.2026582597 0.735576439 0.00563653446
0.2036164521 0.739978472 0.00566456166
0.2045746444 0.748108247 0.00565108022
0.2055328367 0.751506787 0.00567407291
0.206491045 0.758236624 0.00567362804
0.2074492373 0.764454405 0.00566755194
0.2084074138 0.766855159 0.00566854119
0.209365622 0.772675487 0.00565466432
0.2103238143 0.78454602 0.0057118489
0.2112820226 0.780640618 0.00566356711
0.212240199 0.784556284 0.00567801408
0.2131983913 0.786894065 0.00566682957
0.2141565996 0.793027757 0.00566805185
0.2151147919 0.788265731 0.00565644544
0.2160729843 0.799494169 0.00563410302
0.2170311766 0.806563374 0.00568351773
0.2179893689 0.812182308 0.0056741113
0.2189475772 0.809065096 0.00565057938
0.2199057536 0.807521262 0.00564963166
0.2208639619 0.808220902 0.00561789375
0.2218221542 0.818732259 0.00566020145
0.2227803624 0.821799145 0.0056328404
0.2237385389 0.826772359 0.00564957943
0.2246967312 0.816735236 0.00562193969
0.2256549394 0.828314082 0.00560484629
0.2266131318 0.829160893 0.00562832295
0.2275713241 0.837351546 0.00561102905
0.2285295164 0.823534198 0.00559629142
0.2294877088 0.833008369 0.00567821502
0.230445917 0.819270982 0.00565824579
0.2314041094 0.816610479 0.00569566151
0.2323623017 0.809018453 0.00564464361
0.233320494 0.808219445 0.00567641313
0.2342787023 0.7818378 0.00560018876
0.2352368946 0.756090555 0.00553659884
0.236195071 0.735156838 0.00546951195
0.2371532793 0.718248203 0.00546232298
0.2381114716 0.685799307 0.00541271799
0.2390696799 0.660099101 0.0053153964
0.2400278563 0.622736376 0.00523046876
0.2409860486 0.582768047 0.00508995565
0.2419442569 0.549838267 0.00497789431
0.2429024492 0.529167327 0.00493489648
0.2438606416 0.498494938 0.00477375044
0.2448188339 0.475988246 0.00469283516
0.2457770262 0.442734798 0.00457343173
0.2467352345 0.407975786 0.00442050146
0.2476934109 0.382009082 0.00430089775
0.2486516191 0.37136581 0.00424867078
0.2496098115 0.350141965 0.00415064128
0.2505680197 0.329163533 0.0040175843
0.2515261961 0.304362543 0.00393454326
0.2524843885 0.288044683 0.00385345224
0.2534425967 0.278481056 0.00378824015
0.2544007891 0.267824622 0.00374844759
0.2553589655 0.248280287 0.00361123392
0.2563171737 0.23006055 0.00354014716
0.2572753661 0.21827593 0.00346615227
0.2582335743 0.208985969 0.00340778181
0.2591917507 0.198257125 0.00336307541
0.260149959 0.187824579 0.00333133136
0.2611081513 0.171987347 0.00329725245
0.2620663596 0.159561119 0.00319062907
0.2630245519 0.158522161 0.00320349924
0.2639827283 0.149850884 0.00314999025
0.2649409366 0.133760065 0.00305844965
0.2658991289 0.131162505 0.00304381244
0.2668573372 0.126052883 0.00297451065
0.2678155136 0.11802815 0.00293160498
0.2687737059 0.109771314 0.0029013281
0.2697319142 0.103842478 0.0028338102
0.2706901065 0.0971279994 0.00281840771
0.2716482988 0.0930563728 0.00272263031
0.2726064912 0.0868209776 0.00273978846
0.2735646835 0.0842981459 0.00266702139
0.2745228918 0.0801599042 0.00265311924
0.2754810682 0.076194956 0.0026408864
0.2764392764 0.0729766274 0.00256900622
0.2773974688 0.0651505322 0.00254126792
0.278355677 0.0647104904 0.00246258184
0.2793138534 0.0589929568 0.00250703147
0.2802720458 0.0611683381 0.00252520777
0.281230254 0.0550298139 0.00247981686
0.2821884464 0.053343153 0.00241490481
0.2831466228 0.0552808969 0.00238448786
0.284104831 0.0518211584 0.00241410754
0.2850630234 0.0457744826 0.00242795911
0.2860212316 0.0457065297 0.00238929551
0.286979408 0.0424414898 0.00242309137
0.2879376163 0.0432126561 0.00239144667
0.2888958086 0.040145547 0.00240939248
0.2898540169 0.0420010138 0.00241074354
0.2908121933 0.0391048385 0.00238159444
0.2917703856 0.0370543485 0.00233842844
0.2927285939 0.0375052526 0.00236015048
0.2936867862 0.0357979082 0.00238337313
0.2946449945 0.0330857808 0.00228258271
0.2956031709 0.0335561715 0.0023512615
0.2965613632 0.0369886754 0.00237896287
0.2975195715 0.0347594261 0.00236374509
0.2984777638 0.0348532975 0.00237432817
0.2994359561 0.0348751588 0.00237161724
0.3003941485 0.0321473267 0.00232839561
0.3013523408 0.0358142756 0.00236833207
0.3023105491 0.0346324606 0.00240649721
0.3032687255 0.0366927008 0.00237370343
0.3042269337 0.0315166168 0.00238422778
0.3051851261 0.0318796348 0.00238361149
0.3061433343 0.0327724957 0.00240801142
0.3071015107 0.0343929783 0.0024621307
0.3080597031 0.0328959091 0.002463611
0.3090179113 0.0339822478 0.00246125385
0.3099761036 0.0312452337 0.00243803945
0.3109342801 0.0328764955 0.00242996256
0.3118924883 0.032250297 0.00253406032
0.3128506806 0.0318860662 0.00247191658
0.3138088889 0.0309951158 0.00248532726
0.3147670653 0.0284172597 0.00247685992
0.3157252736 0.0266350752 0.00247789388
0.3166834659 0.0283917918 0.0024742664
0.3176416582 0.0283207078 0.00245422141
0.3185998665 0.0263258306 0.00251268419
0.3195580588 0.0259579623 0.00253105732
0.3205162193 0.0273443085 0.00252400355
0.3214744276 0.0271234217 0.00251244426
0.3224326199 0.0312718928 0.00247452969
0.3233908282 0.0273138 0.00251148762
0.3243490205 0.025119388 0.00249781374
0.3253072287 0.02728327 0.00250354336
0.3262654211 0.027713986 0.00253659612
0.3272236293 0.0283971268 0.0025181489
0.3281818217 0.0296736864 0.00254202579
0.3291399822 0.0295311699 0.00254008645
0.3300981904 0.0252365901 0.00253916905
0.3310563828 0.0238074297 0.00251436848
0.332014591 0.0291246506 0.00263033724
0.3329727833 0.0243203114 0.00270224723
0.3339309916 0.0253894898 0.00277152893
0.3348891839 0.0284405833 0.00289231491
0.3358473763 0.0270016054 0.00284831936
0.3368055527 0.0254595117 0.0029068439
0.337763745 0.0270627904 0.00294208083
0.3387219374 0.0259988354 0.00299458266
0.3396801456 0.0270232056 0.00299559671
0.3406383379 0.0265609059 0.00315967143
0.3415965462 0.0226666517 0.00321510962
0.3425547385 0.0245505855 0.00322992192
0.3435129468 0.0261283939 0.00329565435
0.3444711073 0.0217623005 0.00334826454
0.3454292996 0.0237386697 0.00341456634
0.3463875079 0.0237001602 0.00338163751
0.3473457002 0.0268882981 0.00355425954
0.3483039084 0.0216001502 0.00355510049
0.3492621008 0.0254227508 0.00360753697
0.350220309 0.0192327 0.00357061386
0.3511785014 0.0219316521 0.00351599643
0.3521366619 0.0226071593 0.00359837575
0.3530948701 0.0207579871 0.00355702206
0.3540530625 0.0162095413 0.00366079569
0.3550112548 0.0171671173 0.00362968333
0.355969463 0.0199209285 0.00388732529
0.3569276554 0.0140373538 0.00394419842
0.3578858636 0.0185303092 0.00393262598
0.358844056 0.0175582851 0.00399885658
0.3598022642 0.01998034 0.00392223094
0.3607604247 0.0166433568 0.00412229715
0.3617186171 0.0200679073 0.00430558713
0.3626768253 0.0201087472 0.00409299492
0.3636350176 0.0196126899 0.00425999202
0.3645932259 0.0168162174 0.00426910523
0.3655514182 0.0142984744 0.00432728391
0.3665096265 0.0209809522 0.00447462659
0.3674678188 0.024705947 0.00448886632
0.3684259793 0.0223250647 0.00438883441
0.3693841876 0.0133349781 0.00443564469
0.3703423799 0.0141585417 0.00452440696
0.3713005881 0.0174188858 0.00456426199
0.3722587805 0.0206850939 0.00500346881
0.3732169728 0.0191486887 0.00495778695
0.3741751811 0.0148109318 0.00481372368
0.3751333734 0.0186810605 0.00509068604
0.3760915339 0.0207103472 0.00503295449
0.3770497422 0.0246881169 0.00514849469
0.3780079345 0.0185471288 0.00493668223
0.3789661427 0.0130925731 0.00494740372
0.3799243351 0.00993144395 0.00571221679
0.3808825433 0.0132631856 0.0052945918
0.3818407357 0.0157682427 0.00526546764
0.3827989439 0.0156960201 0.00532936532
0.3837571362 0.0143395471 0.00560825367
0.3847152968 0.012118955 0.00635449303
0.385673505 0.00766510303 0.00650378494
0.3866316973 0.0143460169 0.0062013055
0.3875899056 0.0151087531 0.00614226419
0.3885480979 0.00987645592 0.00653921205
0.3895063062 0.00848719232 0.00752571963
0.3904644985 0.0224522116 0.00737961994
0.3914226908 0.00320122578 0.0071856587
0.3923808513 0.0174634908 0.00808635423
0.3933390596 0.0123980771 0.0076425754
0.3942972519 0.0124243775 0.00803063619
0.3952554602 0.0121058142 0.00925763774
0.3962136525 0.024745614 0.00951855888
0.3971718608 0.00253302161 0.0100448309
0.3981300531 0.0171959806 0.0109631867
0.3990882614 0.0196398846 0.0117980036
0.4000464219 0.0201164654 0.0116634025
0.4010046142 0.0233361234 0.0151069675
0.4019628224 0.0168245653 0.0138459141
0.4029210148 0.0044048244 0.0112092286
0.403879223 0.0216400617 0.0233313072
0.4048374154 0.0256140905 0.0220888248
0.4057956236 0.00762879675 0.0220825665

