# s I dI
0.008186765547 13.7711492 0.24762774
0.009278334181 12.4221137 0.174909378
0.01036990266 11.0566899 0.130831886
0.01146147129 9.56995444 0.107241178
0.01255303992 8.18738413 0.094468515
0.01364460967 7.15012278 0.0810964628
0.01473617814 6.44935342 0.0755443229
0.01582774678 5.65036585 0.0663889474
0.01691931477 5.06406527 0.0614591449
0.01801088373 4.49369189 0.0569724665
0.01910245268 4.01040772 0.0500958652
0.02019402163 3.55135183 0.0472003277
0.02128558899 3.13956029 0.0423880864
0.02237715794 2.88609246 0.0401454516
0.02346872689 2.56469582 0.0368078413
0.02456029585 2.38979199 0.0344661946
0.02565186321 2.18371152 0.0327677925
0.02674343534 1.9453509 0.029586749
0.02783500429 1.79683341 0.0284142774
0.02892657165 1.60698712 0.026098935
0.03001814061 1.47847987 0.0246872556
0.03110970956 1.38935267 0.0237764737
0.03220127851 1.27947687 0.0218952352
0.03329284587 1.174558 0.0210528228
0.03438441482 1.12128657 0.019954919
0.03547598377 1.01570298 0.018863945
0.03656755272 0.957493889 0.018234648
0.03765912009 0.890303814 0.0169104466
0.03875068904 0.849510725 0.0166367195
0.03984225799 0.805803805 0.0157266844
0.04093382694 0.755614622 0.0152482639
0.0420253943 0.712848602 0.0145960002
0.04311696325 0.673964974 0.0139346078
0.0442085322 0.63941948 0.0135809186
0.04530010116 0.631106207 0.0130977482
0.04639167011 0.570601335 0.0124902231
0.04748323747 0.555701396 0.0121090061
0.04857480642 0.52869176 0.0117173182
0.04966637537 0.486769073 0.0112354063
0.05075794432 0.472752922 0.0107764668
0.05184951168 0.442426155 0.0104965675
0.05294108541 0.43336932 0.0101794414
0.05403265436 0.417004318 0.00994615477
0.05512422331 0.411432208 0.00983147686
0.05621579067 0.396266334 0.00939327249
0.05730735963 0.36694815 0.00911896108
0.05839892858 0.362409857 0.00887792796
0.05949049753 0.359976872 0.00884086251
0.06058206489 0.343015006 0.00852493394
0.06167363384 0.331687065 0.00830523928
0.06276520279 0.315690054 0.00814623199
0.06385677175 0.302793229 0.00786580516
0.0649483407 0.307306285 0.00811007506
0.06603990806 0.303062113 0.0080650189
0.06713147701 0.294772288 0.00797771052
0.06822304596 0.298313902 0.00808170206
0.06931461491 0.298700034 0.00791273799
0.07040618227 0.296277209 0.00804245322
0.07149775123 0.281322551 0.00775401085
0.07258932018 0.280215111 0.00776199616
0.07368088913 0.279315919 0.00778610725
0.07477245649 0.278710767 0.00759380852
0.07586402544 0.272452325 0.00765441555
0.07695559439 0.275876943 0.00755819037
0.07804716335 0.278016882 0.00763851982
0.07913873071 0.273419716 0.0075376312
0.08023030443 0.27560347 0.00749389891
0.08132187338 0.26897408 0.00747909028
0.08241344234 0.272041322 0.00738508185
0.08350501129 0.270031312 0.00742924146
0.08459657865 0.268756505 0.00727419072
0.0856881476 0.256902804 0.00697263424
0.08677971655 0.2710731 0.00704228277
0.0878712855 0.276708449 0.00691271189
0.08896285286 0.265897116 0.00680939798
0.09005442182 0.273656583 0.00677099472
0.09114599077 0.261450185 0.00658379522
0.09223755972 0.260455571 0.00654911465
0.09332912708 0.261391308 0.00642677624
0.09442069603 0.258023701 0.00640230328
0.09551226498 0.26470715 0.00636518026
0.09660383394 0.253688515 0.00623105876
0.09769540289 0.249635978 0.00613312183
0.09878697025 0.255033208 0.00614583293
0.0998785392 0.265791633 0.00622810935
0.1009701082 0.250937781 0.00598975023
0.1020616771 0.253403567 0.00601335677
0.1031532445 0.244760226 0.00587247885
0.1042448134 0.244216637 0.00582052142
0.1053363824 0.253706776 0.00589512324
0.1064279513 0.243821275 0.00571185862
0.1075195187 0.248337794 0.00576531141
0.1086110876 0.246963116 0.00570589175
0.1097026566 0.244548615 0.00566017539
0.1107942255 0.246543084 0.00563758448
0.1118857929 0.24917752 0.00560677165
0.1129773618 0.238197492 0.00549842734
0.1140689308 0.238101012 0.00544173936
0.1151604998 0.235620003 0.00541294552
0.1162520687 0.233119442 0.00535761915
0.1173436361 0.236430442 0.00534716514
0.118435205 0.236916364 0.00534243725
0.119526774 0.231049623 0.00522884189
0.1206183429 0.229412115 0.00521112005
0.1217099103 0.224284822 0.00510181746
0.1228014792 0.227011622 0.00513681749
0.1238930482 0.227407215 0.00512364709
0.1249846171 0.217692308 0.00494903099
0.1260761845 0.218263596 0.00498353065
0.1271677534 0.214893541 0.00488481189
0.1282593224 0.214999089 0.00488591354
0.1293508913 0.213868299 0.00486268719
0.1304424587 0.213639861 0.00479724865
0.1315340277 0.209087159 0.00477155881
0.1326255966 0.201404861 0.00464452857
0.1337171656 0.202222825 0.00465500373
0.1348087345 0.194326864 0.00453396782
0.1359003019 0.187781007 0.00445128277
0.1369918708 0.180521715 0.00440155601
0.1380834398 0.185392988 0.00436858328
0.1391750087 0.182759035 0.0043757207
0.1402665856 0.185128018 0.00435933772
0.1413581546 0.179918553 0.00427609727
0.1424497235 0.175331759 0.00424379685
0.1435412925 0.173255937 0.00415638133
0.1446328599 0.171965527 0.00416406028
0.1457244288 0.171178838 0.00412139958
0.1468159978 0.175170896 0.0041678367
0.1479075667 0.171402451 0.0041721725
0.1489991341 0.17256759 0.00419506714
0.150090703 0.170334119 0.00421783599
0.151182272 0.172348914 0.00419817275
0.1522738409 0.170669396 0.00422143804
0.1533654099 0.174009942 0.00424469756
0.1544569772 0.168903264 0.00420152039
0.1555485462 0.173728943 0.00427828574
0.1566401151 0.181021503 0.00429751712
0.1577316841 0.182951425 0.00435884753
0.1588232515 0.193359291 0.00443416448
0.1599148284 0.197369154 0.0044970783
0.1610063766 0.199554382 0.00454168505
0.1620979567 0.195128925 0.00442906746
0.1631895209 0.206839215 0.00459448383
0.164281101 0.209636098 0.00456614819
0.1653726493 0.218973727 0.00468539734
0.1664642293 0.231772813 0.00478523558
0.1675557935 0.246490097 0.00489205012
0.1686473736 0.249647554 0.00486980685
0.1697389219 0.252539913 0.00478065869
0.170830502 0.26529586 0.00488555049
0.1719220661 0.281960482 0.00495755433
0.1730136462 0.291951533 0.00501488649
0.1741052104 0.313860426 0.00518460539
0.1751967746 0.325874899 0.0051802666
0.1762883547 0.344670776 0.00534752354
0.1773799189 0.366324251 0.00542932469
0.178471499 0.385586457 0.00555002637
0.1795630472 0.396410476 0.00562953918
0.1806546273 0.415405411 0.00565767331
0.1817461915 0.440404174 0.00584066331
0.1828377716 0.46262308 0.00591118657
0.1839293358 0.48886452 0.00607784807
0.1850208999 0.514288092 0.00618300647
0.1861124641 0.530520589 0.00623954118
0.1872040442 0.547519195 0.00633804276
0.1882956084 0.57511022 0.0064016518
0.1893871885 0.594011403 0.0065207256
0.1904787367 0.609656422 0.00655274573
0.1915703168 0.641496257 0.00670785773
0.192661881 0.644367371 0.00672995045
0.1937534611 0.660997194 0.00671553438
0.1948450094 0.677241645 0.00683293445
0.1959365895 0.69918268 0.00686629894
0.1970281536 0.718468714 0.00696349358
0.1981197337 0.72181101 0.00696155354
0.199211282 0.730604066 0.00694504027
0.2003028621 0.749400464 0.00705429278
0.2013944263 0.756664038 0.00700190486
0.2024860063 0.770993686 0.00708886303
0.2035775705 0.796061973 0.00714516866
0.2046691347 0.805705718 0.0071763419
0.2057606989 0.8211703 0.007241243
0.206852279 0.833524976 0.00721789602
0.2079438432 0.848272972 0.00730176164
0.2090354232 0.859381567 0.00729486179
0.2101269715 0.876766577 0.00735901907
0.2112185516 0.896329691 0.00743554993
0.2123101158 0.916972877 0.00743692993
0.2134016959 0.933576945 0.00752717298
0.2144932441 0.94694352 0.00752857898
0.2155848242 0.966707372 0.00759757826
0.2166763884 0.980252318 0.00762023608
0.2177679685 0.997514843 0.00765400665
0.2188595168 1.01722212 0.00772364933
0.2199510968 1.01782383 0.00767314887
0.221042661 1.03312538 0.00773111412
0.2221342411 1.04882471 0.0077478959
0.2232258053 1.03810641 0.00770054345
0.2243173695 1.02942129 0.00765713096
0.2254089336 1.02491279 0.00759635637
0.2265005137 1.02500548 0.00760296223
0.2275920779 0.999257325 0.00746916552
0.228683658 0.977411777 0.00737017899
0.2297752063 0.936892458 0.00720848624
0.2308667864 0.916969652 0.0070866118
0.2319583505 0.882379184 0.00696725255
0.2330499306 0.835402544 0.00674908429
0.2341414789 0.798696013 0.00661022101
0.235233059 0.751740096 0.00639091412
0.2363246232 0.718630143 0.00623172144
0.2374162033 0.671701138 0.00604048861
0.2385077515 0.640819216 0.0058520689
0.2395993316 0.601434543 0.00569401815
0.2406908958 0.562775201 0.00548591649
0.2417824759 0.532082138 0.00534222908
0.2428740401 0.509942128 0.00524241895
0.2439656042 0.476440088 0.0050149184
0.2450571843 0.452817546 0.00492203721
0.2461487485 0.425083092 0.00474008208
0.2472403286 0.399340968 0.00462323953
0.2483318928 0.38098378 0.00450018097
0.249423457 0.355891523 0.00433815879
0.2505150211 0.334636553 0.00423555335
0.2516066012 0.310975409 0.00405849819
0.2526981654 0.30114489 0.00401090709
0.2537897296 0.281428345 0.00386929302
0.2548812938 0.269278496 0.00378393161
0.2559728738 0.250031385 0.00367112939
0.257064438 0.235405007 0.00353546258
0.2581560181 0.225935198 0.00348680037
0.2592475664 0.212190316 0.00336650088
0.2603391465 0.200325347 0.00329385052
0.2614307106 0.189323987 0.00324594977
0.2625222907 0.17835062 0.00316943342
0.263613839 0.171906833 0.00314827175
0.2647054191 0.159435454 0.00303073677
0.2657969833 0.147400592 0.00296378795
0.2668885634 0.136060456 0.00287119978
0.2679801116 0.132497696 0.0028477657
0.2690716917 0.127786482 0.00283556437
0.2701632559 0.118226978 0.00275900717
0.271254836 0.111826281 0.00273730481
0.2723464002 0.1064858 0.00268024379
0.2734379643 0.0975911321 0.00261779438
0.2745295285 0.0898902949 0.00255741901
0.2756211086 0.0895967338 0.00253972811
0.2767126728 0.0810872062 0.0024845702
0.2778042529 0.0775592726 0.00242953694
0.2788958011 0.0713611575 0.00237322029
0.2799873812 0.0654044742 0.00229528611
0.2810789454 0.0655903002 0.00229715598
0.2821705255 0.0622174909 0.00228453673
0.2832620738 0.0581289403 0.00222553855
0.2843536539 0.0582748067 0.00223187501
0.285445218 0.0523034846 0.00215984191
0.2865367981 0.0526612276 0.00217551111
0.2876283464 0.0484812139 0.00212412829
0.2887199265 0.047362608 0.00207854924
0.2898114907 0.0467632321 0.00209705678
0.2909030708 0.0486504898 0.00211564375
0.2919946349 0.044967692 0.00208930449
0.2930861991 0.0390819192 0.00201874315
0.2941777633 0.039000128 0.00200403509
0.2952693434 0.0429018412 0.00207760819
0.2963609076 0.0369756793 0.00201086043
0.2974524877 0.0375837829 0.00206334461
0.2985440359 0.0337425254 0.00201559656
0.299635616 0.0363784489 0.00205816063
0.3007271802 0.0318249969 0.00202766457
0.3018187603 0.0305936642 0.00198389023
0.3029103085 0.0320931625 0.00201967329
0.3040018886 0.0315864893 0.00201596801
0.3050934528 0.0296838702 0.00200073727
0.3061850329 0.0329894922 0.0020787483
0.3072765812 0.0305741598 0.00202747748
0.3083681613 0.0337083476 0.00210201791
0.3094597254 0.0333646334 0.00207979413
0.3105513055 0.0294543019 0.00203670806
0.3116428697 0.0301611177 0.00203332437
0.3127344339 0.0252343683 0.00196494523
0.3138259981 0.0284344352 0.00204887218
0.3149175781 0.0289207283 0.00203669322
0.3160091582 0.0251867767 0.00201581301
0.3171007224 0.0312474429 0.00206791049
0.3181922866 0.0302512331 0.00208529521
0.3192838667 0.0286847805 0.00206522559
0.320375415 0.0287434474 0.00207338354
0.321466995 0.0277876117 0.00207095877
0.3225585751 0.0243523096 0.00202018313
0.3236501393 0.0282138348 0.00211651623
0.3247416876 0.0260099552 0.00208456777
0.3258332677 0.0301370707 0.00215379063
0.3269248478 0.0275634569 0.00212161961
0.3280164119 0.0252875977 0.00205619336
0.3291079602 0.025594702 0.00211472211
0.3301995403 0.0274719894 0.00213165136
0.3312911204 0.0271894976 0.00215740175
0.3323827005 0.0285738304 0.00218448492
0.3334742328 0.0238645732 0.00206773858
0.3345658129 0.0217968074 0.00209622625
0.335657393 0.0263302492 0.00213142198
0.3367489731 0.0241189907 0.00214010934
0.3378405054 0.0238949504 0.00214423446
0.3389320855 0.024712792 0.00214977344
0.3400236656 0.0261796015 0.00222205935
0.3411152457 0.025452208 0.00216395072
0.3422067781 0.0224139368 0.00214966892
0.3432983582 0.0227080883 0.00214926597
0.3443899383 0.0244693538 0.00219253362
0.3454815184 0.0263287411 0.00225424265
0.3465730507 0.0234830069 0.00217012064
0.3476646308 0.0250032142 0.0022230365
0.3487562109 0.0205134877 0.00213340016
0.349847791 0.0248856071 0.0022305096
0.3509393392 0.0253188633 0.00223951576
0.3520309034 0.0215116729 0.00218810293
0.3531224835 0.0235796349 0.00227650312
0.3542140636 0.0178204951 0.00209640391
0.3553056119 0.0188180685 0.00217430492
0.356397176 0.0200094328 0.00217921858
0.3574887561 0.0188191311 0.00219648613
0.3585803362 0.0191616648 0.00219486764
0.3596718845 0.0202711214 0.00219524365
0.3607634646 0.0212752802 0.00224190769
0.3618550288 0.0173065543 0.00217015157
0.3629466088 0.0205086654 0.00226109388
0.3640381571 0.0194512059 0.0022211308
0.3651297372 0.0180197615 0.00219919525
0.3662213173 0.0187799924 0.00223796878
0.3673128815 0.0191359511 0.00220385848
0.3684044297 0.020800533 0.00230711981
0.3694960098 0.0171658118 0.00221130998
0.3705875899 0.016702323 0.00224095234
0.37167917 0.0164131029 0.00224395976
0.3727707024 0.0190648858 0.00229268126
0.3738622825 0.0172607237 0.00227393884
0.3749538625 0.0178717077 0.00227006533
0.3760454426 0.0162833234 0.00224505816
0.377136975 0.0147223647 0.00223009618
0.3782285551 0.0145228141 0.00224302725
0.3793201352 0.0180717341 0.00244879466
0.3804117153 0.0162154412 0.0024520255
0.3815032476 0.0181987647 0.00252513765
0.3825948277 0.0145947205 0.00249469347
0.3836864078 0.0145876362 0.00254661668
0.3847779879 0.0195361197 0.00268306351
0.385869568 0.0153331177 0.00263230739
0.3869611003 0.0182638776 0.00273194925
0.3880526804 0.0219674353 0.00291901297
0.3891442605 0.0156598519 0.00276102582
0.3902358406 0.0185113132 0.00290447827
0.3913273729 0.0139309611 0.00283705443
0.392418953 0.0163062848 0.00293731652
0.3935105331 0.0137235035 0.00292823041
0.3946021132 0.0167508354 0.00302004608
0.3956936456 0.0128023925 0.00300668364
0.3967852257 0.0173746876 0.00321880611
0.3978768058 0.014347553 0.00323440469
0.3989683858 0.0164339195 0.00324035159
0.4000599341 0.0198006299 0.00338338844
0.4011514983 0.0142941426 0.00322592711
0.4022430784 0.0153788446 0.00330113443
0.4033346585 0.0141543605 0.00333157557
0.4044262067 0.0113308888 0.00327014373
0.4055177868 0.0172025343 0.00349116412
0.406609351 0.0140013691 0.00337430435
0.4077009311 0.00848864461 0.00328477053
0.4087924794 0.0140257465 0.00363567627
0.4098840595 0.0152030256 0.00362425276
0.4109756395 0.0183228059 0.00375354358
0.4120672037 0.0124981441 0.00357510661
0.413158752 0.0105073916 0.00363815168
0.4142503321 0.0169620859 0.00375919538
0.4153419122 0.0166618644 0.00385208676
0.4164334763 0.0115242761 0.00374927004
0.4175250246 0.00925903564 0.0037810168
0.4186166047 0.0168330902 0.00414555419
0.4197081848 0.0193066837 0.00424113893
0.4207997649 0.0181711442 0.00424748995
0.4218912972 0.0175518846 0.00443998638
0.4229828773 0.0174739385 0.00424009894
0.4240744574 0.0164922532 0.00434868741
0.4251660375 0.00959532 0.00419524311
0.4262575699 0.00740092182 0.00396689751
0.4273491499 0.0122355347 0.00429194436
0.42844073 0.0132075442 0.00456236965
0.4295323101 0.0128781601 0.0046283464
0.4306238425 0.0155144521 0.00498195283
0.4317154226 0.0141600837 0.00486081244
0.4328070027 0.00791200365 0.0045333004
0.4338985828 0.0201311637 0.00533045368
0.4349901151 0.0168394358 0.00538305723
0.4360816952 0.021011308 0.00570775153
0.4371732753 0.0173106865 0.00567329285
0.4382648554 0.0201695616 0.0058470475
0.4393564036 0.0145593117 0.00570920815
0.4404479678 0.0125316514 0.00565522784
0.4415395479 0.0109172441 0.00620086929
0.442631128 0.0135886999 0.00606122166
0.4437226763 0.00628910741 0.00579837677
0.4448142404 0.0178648306 0.00663963586
0.4459058205 0.0193573723 0.0071787694
0.4469974006 0.0103281381 0.006809115
0.4480889489 0.0162723312 0.00743778366
0.449180529 0.0153449124 0.00738299682
0.4502720932 0.000497282517 0.00710220952
0.4513636733 0.0145515069 0.00879167732
0.4524552215 0.0171533416 0.0086036275
0.4535468016 0.0222371856 0.0098967213
0.4546383817 0.0215196931 0.0115617677
0.4557299459 0.00313299826 0.0104275751
0.456821526 0.0192981446 0.013363998
0.4579130742 0.0164843291 0.0142237651
0.4590046543 0.00246064577 0.0144670969
0.4600962344 0.0164845022 0.020042444
0.4611877986 0.00779267322 0.0201632013
0.4622793469 0.0109529757 0.0259045988

