# s I dI
0.005270072643 97.4615271 4.74999418
0.006228268002 74.242981 0.832182362
0.007186463043 73.7310876 0.48386509
0.008144657924 60.4614046 0.361182827
0.009102852805 50.15798 0.276483869
0.01006104769 40.695937 0.216495261
0.01101924257 33.0603821 0.185782167
0.01197743872 27.9116493 0.158747146
0.0129356336 23.5121855 0.142457133
0.01389382849 20.4036245 0.12472724
0.01485202337 17.4810047 0.112867196
0.01581021825 15.0259899 0.101753223
0.01676841361 13.4293942 0.0915813107
0.01772660753 11.5041885 0.0840979087
0.01868480305 10.5494137 0.076705077
0.01964299857 9.02232099 0.0700469769
0.0206011925 8.10845929 0.064692845
0.02155938801 7.41187515 0.059934125
0.02251758194 6.44969753 0.0555982697
0.02347578064 5.88681263 0.0507160244
0.02443397457 5.25971181 0.0479022087
0.02539217009 4.81143804 0.0445655454
0.02635036401 4.28325252 0.0412565638
0.02730855953 3.90299505 0.0390018251
0.02826675505 3.57984762 0.0362830888
0.02922494897 3.19366109 0.0342739965
0.03018314449 2.96174985 0.0319948446
0.03114133842 2.69047983 0.0302414388
0.03209953394 2.4794701 0.0286347796
0.03305772945 2.290159 0.0268928846
0.03401592338 2.10638624 0.0258795468
0.0349741189 1.96310554 0.0242525408
0.03593231442 1.79112671 0.0230595099
0.03689050834 1.65043489 0.0218436268
0.03784870386 1.58166586 0.020993955
0.03880690097 1.44303952 0.0201782003
0.03976509649 1.40750369 0.0192880306
0.04072329042 1.2915993 0.0185306473
0.04168148593 1.2075628 0.0176507941
0.04263967986 1.16300668 0.017098365
0.04359787538 1.09876435 0.0165839794
0.0445560709 1.01570551 0.0156198061
0.04551426482 0.995988842 0.0154933477
0.04647246034 0.970166402 0.0149095332
0.04743065427 0.895525808 0.014339837
0.04838884978 0.842290332 0.0138511156
0.0493470453 0.808007872 0.013364189
0.05030523923 0.765299311 0.0130146856
0.05126343475 0.739581207 0.0124873812
0.05222163027 0.698392442 0.0122018632
0.05317982419 0.674461469 0.011892046
0.05413801971 0.615542409 0.0112218106
0.05509621364 0.587396311 0.0110265933
0.05605440915 0.563142783 0.0106542275
0.05701260467 0.545999195 0.0106913148
0.0579707986 0.521109183 0.0104525458
0.05892899412 0.494945005 0.0102804808
0.05988718804 0.464542833 0.010032858
0.06084538356 0.474930368 0.00999174244
0.06180358385 0.453434715 0.00996000487
0.06276177778 0.437465892 0.0096378488
0.0637199733 0.407300249 0.00937590124
0.06467816882 0.409547889 0.00935590399
0.06563636274 0.392750731 0.00917695267
0.06659455826 0.383439549 0.00914796907
0.06755275219 0.379029986 0.0088572059
0.0685109477 0.355020338 0.00871204299
0.06946914322 0.357531703 0.00863771876
0.07042733715 0.359160866 0.00864092234
0.07138553267 0.340138587 0.00857299464
0.07234372659 0.339025619 0.00835217398
0.07330192211 0.327845053 0.00834615051
0.07426011763 0.331083839 0.00817814354
0.07521831156 0.317321719 0.0078829866
0.07617650707 0.307168266 0.0076847925
0.07713470259 0.315302414 0.00755839324
0.07809289652 0.301918086 0.00734385655
0.07905109204 0.308896276 0.00732687568
0.08000929074 0.301712689 0.00718290176
0.08096748148 0.299390109 0.00706868727
0.08192568177 0.303640782 0.00704003683
0.08288387093 0.302153078 0.00706938903
0.08384207122 0.305598234 0.00691816056
0.08480026037 0.304099822 0.00688188495
0.08575846066 0.312172069 0.00688202586
0.08671665141 0.303482794 0.00680213266
0.08767485011 0.307297754 0.00680812102
0.08863304085 0.304524785 0.00665706275
0.08959124114 0.299106903 0.00668458956
0.09054943029 0.309024103 0.00665456291
0.09150763059 0.300201726 0.00654985005
0.09246581974 0.300650416 0.00648432536
0.09342402003 0.288476212 0.00632835044
0.09438221077 0.282749863 0.00630181946
0.09534040948 0.285031736 0.00620139477
0.09629860022 0.289874514 0.00625219553
0.09725679892 0.288675824 0.00615292948
0.09821498966 0.281419808 0.0060745413
0.09917318996 0.269444432 0.0059747598
0.1001313791 0.269279083 0.0058876898
0.1010895794 0.270030984 0.00586830068
0.1020477701 0.271155606 0.0057938211
0.1030059688 0.274402294 0.00585536749
0.1039641596 0.26000012 0.00576420498
0.1049223583 0.260359089 0.0057024983
0.105880549 0.263770282 0.00572325345
0.1068387493 0.264763001 0.00563044038
0.107796948 0.263635633 0.00564158131
0.1087551388 0.261799823 0.00558556135
0.1097133375 0.262379159 0.00551981541
0.1106715282 0.269090091 0.0055947655
0.1116297285 0.26017354 0.00542907962
0.1125879177 0.259350804 0.00544869023
0.113546118 0.25207025 0.00537617304
0.1145043087 0.257173187 0.00536993789
0.1154625074 0.256682959 0.00536871417
0.1164206981 0.260926786 0.00527786338
0.1173788968 0.248751328 0.00519235268
0.1183370876 0.248985068 0.00520093609
0.1192952879 0.255288002 0.00522535019
0.120253477 0.249084053 0.00513367723
0.1212116773 0.251637007 0.00512380278
0.1221698665 0.247863008 0.00511335124
0.1231280668 0.236275949 0.00495962216
0.1240862575 0.239586655 0.00498642601
0.1250444562 0.23318125 0.0049496687
0.126002647 0.243745949 0.00495401856
0.1269608457 0.240108758 0.00489446126
0.1279190364 0.235501693 0.00485918989
0.1288772367 0.230968378 0.00482539457
0.1298354258 0.22564451 0.00485237971
0.1307936261 0.227688354 0.00486692654
0.1317518169 0.217726362 0.00482987909
0.1327100156 0.209145248 0.00470323437
0.1336682063 0.217267992 0.00479618222
0.134626405 0.220246041 0.0048269941
0.1355845958 0.208943217 0.00479485194
0.1365427961 0.206314386 0.00474337932
0.1375009852 0.200665904 0.00464691859
0.1384591855 0.20289276 0.0046983491
0.1394173842 0.201699705 0.00464588025
0.1403755749 0.203340717 0.00469788729
0.1413337752 0.204396267 0.00471625809
0.1422919644 0.199181111 0.00464759303
0.1432501647 0.199755094 0.00466849076
0.1442083554 0.193109188 0.00456716159
0.1451665541 0.199722596 0.00464229905
0.1461247449 0.191898284 0.00455586544
0.1470829436 0.188669318 0.00449116843
0.1480411343 0.192804983 0.00446262886
0.1489993346 0.193156089 0.00438420381
0.1499575238 0.186061279 0.00434588716
0.1509157241 0.193737553 0.00432499316
0.1518739148 0.187725396 0.00429835364
0.1528321135 0.188936421 0.00425744494
0.1537903042 0.196998026 0.00426500834
0.1547485029 0.193506439 0.00428097166
0.1557066937 0.183818073 0.00413454815
0.156664894 0.185958675 0.0041785143
0.1576230831 0.187264301 0.00415040585
0.1585812834 0.186629405 0.00410950747
0.1595394773 0.190134986 0.00415391995
0.1604976697 0.192647866 0.00413305087
0.161455862 0.196605464 0.00417272856
0.1624140703 0.200366899 0.00418750968
0.1633722626 0.202664584 0.0041887683
0.164330439 0.206811888 0.0041971065
0.1652886473 0.203171097 0.00412716713
0.1662468396 0.208273462 0.00421038808
0.1672050479 0.214109625 0.00417699483
0.1681632243 0.215031298 0.00417826493
0.1691214166 0.223177635 0.00425730319
0.1700796249 0.229512253 0.00425890549
0.1710378172 0.234192525 0.00431473988
0.1719960254 0.242261772 0.00429499828
0.1729542019 0.242852537 0.00437227929
0.1739123942 0.2446941 0.00432368641
0.1748706025 0.262674583 0.00443746687
0.1758287948 0.271994498 0.0044973964
0.1767869871 0.286559491 0.00456446403
0.1777451795 0.28785737 0.00456853376
0.1787033877 0.29862946 0.00460439625
0.17966158 0.303259635 0.00462237277
0.1806197565 0.318883763 0.00472732406
0.1815779647 0.336164939 0.00480629221
0.182536157 0.340145382 0.00482590195
0.1834943653 0.35226619 0.00486942523
0.1844525417 0.360244395 0.00491212651
0.1854107341 0.367820871 0.00495132854
0.1863689423 0.386418471 0.00500659582
0.1873271346 0.391177635 0.00504658281
0.188285327 0.392427583 0.00504059035
0.1892435193 0.395091084 0.0050340531
0.1902017276 0.396542413 0.0050361999
0.1911599199 0.397215041 0.00499405044
0.1921180963 0.394894217 0.00498731471
0.1930763046 0.407787399 0.00503212582
0.1940344969 0.397521523 0.00497157332
0.1949927051 0.391468524 0.0049313919
0.1959508816 0.393111177 0.00492130663
0.1969090739 0.384554693 0.00485512815
0.1978672822 0.392910161 0.00490375677
0.1988254745 0.384096966 0.00485258863
0.1997836827 0.383520612 0.00483940736
0.2007418592 0.381315086 0.00479093792
0.2017000515 0.377771458 0.00476887259
0.2026582597 0.383901346 0.00477171515
0.2036164521 0.377536438 0.00474474614
0.2045746444 0.374997592 0.00469133267
0.2055328367 0.374555474 0.00470018428
0.206491045 0.373156373 0.00467379049
0.2074492373 0.373796379 0.00464848817
0.2084074138 0.378715406 0.00466833957
0.209365622 0.375105672 0.00462323966
0.2103238143 0.368633578 0.0046039954
0.2112820226 0.369683803 0.00458460393
0.212240199 0.373041623 0.00460143476
0.2131983913 0.379737577 0.00462098879
0.2141565996 0.380690204 0.0046155689
0.2151147919 0.378258081 0.00459934172
0.2160729843 0.382541286 0.00457063307
0.2170311766 0.382449502 0.00459493717
0.2179893689 0.381566737 0.00456977052
0.2189475772 0.38606995 0.00458184962
0.2199057536 0.38344728 0.00457243211
0.2208639619 0.393081769 0.00460034148
0.2218221542 0.393424729 0.00460190721
0.2227803624 0.390848814 0.00456156297
0.2237385389 0.39719681 0.00459369693
0.2246967312 0.395697196 0.00459665104
0.2256549394 0.40166385 0.00457191605
0.2266131318 0.39519325 0.00455655447
0.2275713241 0.399004468 0.00454222434
0.2285295164 0.397395816 0.00456028781
0.2294877088 0.396460857 0.00459689796
0.230445917 0.401000217 0.00464330312
0.2314041094 0.397289226 0.00465978444
0.2323623017 0.391279081 0.00460206516
0.233320494 0.382279539 0.00457426091
0.2342787023 0.370504305 0.00453594615
0.2352368946 0.35917067 0.0044943557
0.236195071 0.352386399 0.00444863158
0.2371532793 0.344653143 0.004450075
0.2381114716 0.335320634 0.00444648442
0.2390696799 0.325420668 0.00438889455
0.2400278563 0.305971559 0.00432290879
0.2409860486 0.298891111 0.00428964721
0.2419442569 0.284607947 0.00422519038
0.2429024492 0.274483704 0.00419112989
0.2438606416 0.262474933 0.00408826932
0.2448188339 0.26204202 0.00408870763
0.2457770262 0.24653897 0.00402843669
0.2467352345 0.241187439 0.00399996334
0.2476934109 0.219794411 0.00385068146
0.2486516191 0.212819469 0.00380588396
0.2496098115 0.205369619 0.00374807543
0.2505680197 0.202686635 0.00370524751
0.2515261961 0.187591597 0.00364397694
0.2524843885 0.182750703 0.00361495365
0.2534425967 0.177122124 0.00355889051
0.2544007891 0.166520197 0.00348979866
0.2553589655 0.16476351 0.00345692261
0.2563171737 0.161862477 0.00347334218
0.2572753661 0.153697648 0.00340512343
0.2582335743 0.148137295 0.0033589861
0.2591917507 0.14499127 0.00335676576
0.260149959 0.140769311 0.0033587074
0.2611081513 0.135187165 0.00338816024
0.2620663596 0.133738459 0.00335721713
0.2630245519 0.127966602 0.00332417806
0.2639827283 0.126409878 0.00332252998
0.2649409366 0.116109431 0.00326017446
0.2658991289 0.114282544 0.0032488854
0.2668573372 0.114217395 0.0032193178
0.2678155136 0.109591012 0.00319968116
0.2687737059 0.10081877 0.00315160694
0.2697319142 0.101310996 0.00314068338
0.2706901065 0.101614845 0.00319253953
0.2716482988 0.0997414686 0.00311157221
0.2726064912 0.0940834796 0.00313039161
0.2735646835 0.0956884605 0.00309781486
0.2745228918 0.091122346 0.00307642653
0.2754810682 0.0839425605 0.00302483963
0.2764392764 0.086173302 0.00301002498
0.2773974688 0.0803658295 0.00300115205
0.278355677 0.0780551629 0.00289879741
0.2793138534 0.0753516894 0.00297487589
0.2802720458 0.0706696997 0.0029151107
0.281230254 0.0702626757 0.00293019762
0.2821884464 0.0675582463 0.00286030879
0.2831466228 0.0674724985 0.00280330163
0.284104831 0.0675916279 0.00287993518
0.2850630234 0.0593326918 0.00285354062
0.2860212316 0.0602674533 0.00283237643
0.286979408 0.0589812205 0.00288888411
0.2879376163 0.057604424 0.00282973627
0.2888958086 0.0530606917 0.00282906846
0.2898540169 0.0528483512 0.00280219809
0.2908121933 0.0526553403 0.00281134925
0.2917703856 0.0512630853 0.00277710933
0.2927285939 0.0445972263 0.00269647868
0.2936867862 0.0453910235 0.00275825934
0.2946449945 0.047851727 0.00272517581
0.2956031709 0.0489439938 0.00280975541
0.2965613632 0.0475667848 0.00277163813
0.2975195715 0.0428765451 0.00271789952
0.2984777638 0.0445230521 0.00275541743
0.2994359561 0.0417896546 0.00270891277
0.3003941485 0.0450663897 0.00275947628
0.3013523408 0.0402316123 0.00267149262
0.3023105491 0.0401578682 0.00272812441
0.3032687255 0.0414847947 0.00268916759
0.3042269337 0.0361865785 0.0026860564
0.3051851261 0.0406889964 0.00275745598
0.3061433343 0.0382425439 0.00272658839
0.3071015107 0.0364796655 0.00273450445
0.3080597031 0.0357230112 0.0027449186
0.3090179113 0.0354707479 0.00272320181
0.3099761036 0.0340193751 0.00271739453
0.3109342801 0.0387980451 0.00276213848
0.3118924883 0.0326607061 0.00278047952
0.3128506806 0.0362096497 0.0027787092
0.3138088889 0.0365794321 0.00281508627
0.3147670653 0.0343748725 0.00280809292
0.3157252736 0.0301943001 0.00276371519
0.3166834659 0.0348196446 0.00281806372
0.3176416582 0.0368048377 0.00282767014
0.3185998665 0.0351169687 0.00289325659
0.3195580588 0.0318012844 0.00285954395
0.3205162193 0.0313758033 0.00282612251
0.3214744276 0.0325547009 0.00284071065
0.3224326199 0.0349023249 0.00277887482
0.3233908282 0.0349691255 0.00288264991
0.3243490205 0.0302662922 0.00281687091
0.3253072287 0.0327667054 0.00283757553
0.3262654211 0.0309356718 0.00283118199
0.3272236293 0.0372150508 0.00291605408
0.3281818217 0.0348354129 0.00288028911
0.3291399822 0.0352006293 0.00288554291
0.3300981904 0.0341639567 0.00293744247
0.3310563828 0.0317733286 0.00289169946
0.332014591 0.0354717226 0.00299511169
0.3329727833 0.0310366406 0.00307644494
0.3339309916 0.0332401024 0.00318053387
0.3348891839 0.0343097834 0.00327909543
0.3358473763 0.032993702 0.00323995148
0.3368055527 0.0285339246 0.00324083566
0.337763745 0.0307246562 0.00329843029
0.3387219374 0.0297545678 0.00335639069
0.3396801456 0.0347623135 0.00345704493
0.3406383379 0.0279872284 0.00348316448
0.3415965462 0.0291949056 0.00365045689
0.3425547385 0.0299960167 0.00365343278
0.3435129468 0.0288100709 0.00366382163
0.3444711073 0.0288995032 0.00381875348
0.3454292996 0.0262242022 0.00378362835
0.3463875079 0.0338431462 0.00394822375
0.3473457002 0.030419968 0.00397347379
0.3483039084 0.0339680461 0.00418517045
0.3492621008 0.0275593175 0.00399560735
0.350220309 0.0277546513 0.00411535668
0.3511785014 0.0335352866 0.00416183244
0.3521366619 0.0312721302 0.00417358158
0.3530948701 0.027235076 0.00407132085
0.3540530625 0.0225728791 0.00415842613
0.3550112548 0.0330474305 0.00441599302
0.355969463 0.0255226037 0.00439112809
0.3569276554 0.0194875246 0.00442568779
0.3578858636 0.0301023839 0.00461968145
0.358844056 0.0284536795 0.0046710981
0.3598022642 0.035816732 0.00476235477
0.3607604247 0.0198707844 0.00457007455
0.3617186171 0.0306183811 0.00500041333
0.3626768253 0.030636912 0.00480071392
0.3636350176 0.0253609072 0.00482073799
0.3645932259 0.0201952179 0.00474585302
0.3655514182 0.0240592902 0.00501262531
0.3665096265 0.0292528246 0.00514925461
0.3674678188 0.0283235524 0.00503157716
0.3684259793 0.0268317486 0.00495750813
0.3693841876 0.0269970907 0.00530001364
0.3703423799 0.0338970072 0.00561797193
0.3713005881 0.0319437422 0.00550739504
0.3722587805 0.0238032837 0.00555299984
0.3732169728 0.031485724 0.00584908194
0.3741751811 0.028236575 0.00575058328
0.3751333734 0.0178987902 0.00549642313
0.3760915339 0.020497906 0.0054741501
0.3770497422 0.0316499872 0.00592369511
0.3780079345 0.0312464699 0.0059435687
0.3789661427 0.0222339563 0.00578767644
0.3799243351 0.0159995558 0.00641176574
0.3808825433 0.0220918312 0.0061554125
0.3818407357 0.0284188493 0.00634093957
0.3827989439 0.0242373319 0.00623284554
0.3837571362 0.0327828173 0.00699762582
0.3847152968 0.0258928521 0.00750805357
0.385673505 0.0238497216 0.00776846092
0.3866316973 0.0243239683 0.00725698267
0.3875899056 0.030492029 0.00753505598
0.3885480979 0.0205186873 0.00766045811
0.3895063062 0.0105905344 0.00820134443
0.3904644985 0.0201412823 0.00790689
0.3914226908 0.017468142 0.00859554908
0.3923808513 0.0222669807 0.00906482805
0.3933390596 0.0293216275 0.00941161297
0.3942972519 0.0264314214 0.00968422156
0.3952554602 0.00927201092 0.00977889364
0.3962136525 0.0256907875 0.0104699976
0.3971718608 0.00600564089 0.0110192266
0.3981300531 0.0265317311 0.0126620336
0.3990882614 0.0309698499 0.0138323487
0.4000464219 0.0194006151 0.0126482159
0.4010046142 0.0193088092 0.0160060487
0.4019628224 0.0337703405 0.0173930293
0.4029210148 0.0505565853 0.021046127
0.403879223 0.00954786879 0.0232553446
0.4048374154 0.00057469662 0.0178034903
0.4057956236 0.0351628034 0.032373186

