# s I dI
0.008186765547 6.24464273 0.111862144
0.009278334181 5.31516193 0.0689812213
0.01036990266 4.40156142 0.0424728729
0.01146147129 3.69508094 0.0304732002
0.01255303992 3.11554722 0.0254572432
0.01364460967 2.66596958 0.021186435
0.01473617814 2.25150385 0.0189274536
0.01582774678 1.90450102 0.0163538109
0.01691931477 1.6451563 0.0148274236
0.01801088373 1.41105232 0.0134759757
0.01910245268 1.20831315 0.0116157064
0.02019402163 1.04119722 0.0108240778
0.02128558899 0.904001278 0.00965135861
0.02237715794 0.796160896 0.0090047574
0.02346872689 0.696218931 0.00825012389
0.02456029585 0.609860919 0.00760085629
0.02565186321 0.543909517 0.00715281577
0.02674343534 0.487193895 0.0064325136
0.02783500429 0.430000192 0.0061272376
0.02892657165 0.385078884 0.00565124512
0.03001814061 0.353856257 0.00535101713
0.03110970956 0.317712554 0.00509191488
0.03220127851 0.286029578 0.0046874153
0.03329284587 0.256585545 0.00452557785
0.03438441482 0.234027829 0.00420506
0.03547598377 0.209981335 0.0040011923
0.03656755272 0.201011356 0.00388969739
0.03765912009 0.182370183 0.00357617898
0.03875068904 0.170540329 0.00355196866
0.03984225799 0.152451516 0.0033428424
0.04093382694 0.143160655 0.00323490206
0.0420253943 0.130825039 0.00307710954
0.04311696325 0.124610302 0.00296703871
0.0442085322 0.119166974 0.00287883308
0.04530010116 0.107405961 0.00271016835
0.04639167011 0.0981443268 0.00265871125
0.04748323747 0.101180488 0.00259226691
0.04857480642 0.0941938702 0.0025260826
0.04966637537 0.0881068677 0.00245848963
0.05075794432 0.0826295864 0.0023260623
0.05184951168 0.0769190998 0.002335971
0.05294108541 0.0734294926 0.00225986473
0.05403265436 0.0690984593 0.00218076134
0.05512422331 0.0663734578 0.00215294743
0.05621579067 0.0672205804 0.00206127341
0.05730735963 0.0615244163 0.00204128936
0.05839892858 0.0569483996 0.00198443741
0.05949049753 0.0567631985 0.00197726747
0.06058206489 0.0557497708 0.00192852296
0.06167363384 0.0550563515 0.00187275819
0.06276520279 0.0512459855 0.00186367766
0.06385677175 0.0513096437 0.00182860032
0.0649483407 0.0496348755 0.0018496622
0.06603990806 0.0481097771 0.00184648559
0.06713147701 0.0467249502 0.00181602598
0.06822304596 0.0444430485 0.00182314782
0.06931461491 0.0462383844 0.0017862961
0.07040618227 0.0449207568 0.00182245827
0.07149775123 0.0418916972 0.00178469104
0.07258932018 0.0423298514 0.00177830863
0.07368088913 0.0415674412 0.0017756592
0.07477245649 0.0420422352 0.00173004926
0.07586402544 0.0420979872 0.00177285098
0.07695559439 0.0381543575 0.00172980059
0.07804716335 0.0388797496 0.00175037983
0.07913873071 0.040446375 0.00172959316
0.08023030443 0.0418960537 0.00172625726
0.08132187338 0.0411195648 0.00173251003
0.08241344234 0.0402638965 0.00170379917
0.08350501129 0.0401704847 0.00170692579
0.08459657865 0.0411412626 0.00166338353
0.0856881476 0.0423205853 0.00164766743
0.08677971655 0.0420237611 0.00160299101
0.0878712855 0.0406021135 0.00157261628
0.08896285286 0.0406084796 0.00156842541
0.09005442182 0.0413927175 0.00154696304
0.09114599077 0.0380041661 0.00155167408
0.09223755972 0.0394401213 0.0015430635
0.09332912708 0.0437047727 0.00151822463
0.09442069603 0.0424873569 0.00149971407
0.09551226498 0.0404318618 0.00148484313
0.09660383394 0.0429958624 0.00149667189
0.09769540289 0.0417597239 0.001468704
0.09878697025 0.0416551715 0.00144408448
0.0998785392 0.0418905307 0.00144000994
0.1009701082 0.0436436568 0.00141948728
0.1020616771 0.0429402587 0.00143621801
0.1031532445 0.0425171042 0.00142309031
0.1042448134 0.0425817155 0.00141455919
0.1053363824 0.0453802339 0.00139030923
0.1064279513 0.0439624197 0.00138814168
0.1075195187 0.0420399406 0.00138094419
0.1086110876 0.0429044329 0.00137604474
0.1097026566 0.0412985727 0.00137010162
0.1107942255 0.0429874166 0.00136730367
0.1118857929 0.0436770901 0.00135333779
0.1129773618 0.0447368045 0.00135248891
0.1140689308 0.0432974301 0.00133073587
0.1151604998 0.0429190832 0.00131781102
0.1162520687 0.0420570676 0.00130521212
0.1173436361 0.0406667217 0.00130196494
0.118435205 0.0400420275 0.00128790328
0.119526774 0.0402356269 0.00128184248
0.1206183429 0.0410310196 0.0012841055
0.1217099103 0.0405867777 0.00126425989
0.1228014792 0.0400278573 0.0012654898
0.1238930482 0.0396525811 0.00125453962
0.1249846171 0.0388002902 0.00121014602
0.1260761845 0.0369664166 0.00122416713
0.1271677534 0.0373794039 0.00121701686
0.1282593224 0.0340270345 0.00121071758
0.1293508913 0.0366310814 0.00119340429
0.1304424587 0.0332281774 0.00116410648
0.1315340277 0.0344496546 0.00118630961
0.1326255966 0.0339754959 0.00116534976
0.1337171656 0.0333633997 0.00115851214
0.1348087345 0.0319692218 0.00114862171
0.1359003019 0.0317568382 0.00113136619
0.1369918708 0.0316721581 0.00113761964
0.1380834398 0.030273576 0.00111408611
0.1391750087 0.0308854701 0.00111760915
0.1402665856 0.0287947598 0.00109981157
0.1413581546 0.0288861072 0.00109832794
0.1424497235 0.0285179422 0.0010978149
0.1435412925 0.0297326722 0.00108070617
0.1446328599 0.0282384486 0.00109012526
0.1457244288 0.0281117818 0.00107863114
0.1468159978 0.0271967249 0.00107694584
0.1479075667 0.0270891671 0.00108427231
0.1489991341 0.025785331 0.00109045137
0.150090703 0.0280483251 0.00110139479
0.151182272 0.0276211309 0.00108999266
0.1522738409 0.0271026254 0.00109452641
0.1533654099 0.0291098707 0.00109743501
0.1544569772 0.0289273783 0.00110090198
0.1555485462 0.0299895288 0.00110931994
0.1566401151 0.0283043515 0.00109847938
0.1577316841 0.0309245762 0.00111613546
0.1588232515 0.030685305 0.00111048775
0.1599148284 0.0293785807 0.0011090721
0.1610063766 0.0316729966 0.00113132481
0.1620979567 0.0327915919 0.00111582157
0.1631895209 0.033805323 0.00114067176
0.164281101 0.0358235436 0.00112029402
0.1653726493 0.0345369889 0.00113263207
0.1664642293 0.0358055857 0.00113512404
0.1675557935 0.0360493192 0.00113601619
0.1686473736 0.0387733005 0.00113007421
0.1697389219 0.0402822253 0.00112709038
0.170830502 0.0419954196 0.00113700343
0.1719220661 0.042615271 0.00111718132
0.1730136462 0.0448008111 0.00112029363
0.1741052104 0.0463730979 0.00113939352
0.1751967746 0.0480350675 0.00113230107
0.1762883547 0.0515032392 0.00114402739
0.1773799189 0.0526846919 0.00113406896
0.178471499 0.057058912 0.00115169379
0.1795630472 0.0567707328 0.00116250774
0.1806546273 0.0598650057 0.00115269883
0.1817461915 0.0616902158 0.00116927534
0.1828377716 0.0646066968 0.00117256499
0.1839293358 0.0669929644 0.00118980982
0.1850208999 0.0708229948 0.00119578173
0.1861124641 0.0734116362 0.00119880799
0.1872040442 0.0771796902 0.00121743635
0.1882956084 0.0815675568 0.00121913519
0.1893871885 0.084781935 0.00123793034
0.1904787367 0.0870020559 0.00123961453
0.1915703168 0.0929051501 0.00126682323
0.192661881 0.0951306374 0.00127145039
0.1937534611 0.0984300011 0.00126854806
0.1948450094 0.101566337 0.00129617491
0.1959365895 0.109446407 0.00130105431
0.1970281536 0.113290906 0.00131794789
0.1981197337 0.115897024 0.00132579389
0.199211282 0.119544319 0.00132764908
0.2003028621 0.124190404 0.00135299949
0.2013944263 0.12712635 0.00135322098
0.2024860063 0.126833887 0.00135895349
0.2035775705 0.134146978 0.00136690595
0.2046691347 0.136235453 0.00137726479
0.2057606989 0.140044931 0.00138731973
0.206852279 0.143541194 0.00138241024
0.2079438432 0.147611426 0.00139897364
0.2090354232 0.148293481 0.00139110204
0.2101269715 0.15059518 0.00140400803
0.2112185516 0.152909608 0.00140966248
0.2123101158 0.154535507 0.00140194644
0.2134016959 0.154156609 0.00140567511
0.2144932441 0.159082639 0.00140934209
0.2155848242 0.157986378 0.00140307002
0.2166763884 0.155967453 0.00139685296
0.2177679685 0.156649186 0.00139138239
0.2188595168 0.159721843 0.00139448641
0.2199510968 0.158309046 0.00138042433
0.221042661 0.155051992 0.00137588307
0.2221342411 0.15561846 0.00136585351
0.2232258053 0.15133889 0.00135304618
0.2243173695 0.150569566 0.0013480281
0.2254089336 0.147815943 0.00133124425
0.2265005137 0.146099867 0.00132937081
0.2275920779 0.141754107 0.0013019747
0.228683658 0.136380631 0.00129050525
0.2297752063 0.133467641 0.00127424993
0.2308667864 0.12949443 0.00124989427
0.2319583505 0.126372809 0.00124211126
0.2330499306 0.122946866 0.00122338089
0.2341414789 0.118954116 0.00120644718
0.235233059 0.111545308 0.00118174699
0.2363246232 0.109116832 0.00116297536
0.2374162033 0.106811343 0.00115769005
0.2385077515 0.0996464658 0.00112167442
0.2395993316 0.0957953134 0.00110845675
0.2406908958 0.0909028374 0.00107965153
0.2417824759 0.085100941 0.00107206112
0.2428740401 0.0827533625 0.00105466828
0.2439656042 0.0772704065 0.00102428121
0.2450571843 0.0742240726 0.0010187177
0.2461487485 0.0687027173 0.000992922662
0.2472403286 0.0652710249 0.000982470292
0.2483318928 0.062834061 0.000964702011
0.249423457 0.0587505796 0.000940156058
0.2505150211 0.05602711 0.000933065502
0.2516066012 0.0519417195 0.000914584036
0.2526981654 0.0495527729 0.000904848897
0.2537897296 0.0469554947 0.000889945728
0.2548812938 0.0444023073 0.000870262227
0.2559728738 0.0422829597 0.000865420485
0.257064438 0.0397066533 0.000840083655
0.2581560181 0.0356902603 0.000834083093
0.2592475664 0.0335490679 0.000826619462
0.2603391465 0.0319939788 0.000812387009
0.2614307106 0.0306665113 0.000806135666
0.2625222907 0.0273265528 0.000804176496
0.263613839 0.0264220604 0.000796404272
0.2647054191 0.0248522417 0.000790721322
0.2657969833 0.0234572712 0.000791730911
0.2668885634 0.0208496618 0.00077914893
0.2679801116 0.0202648507 0.000778326759
0.2690716917 0.0204057377 0.000769424827
0.2701632559 0.0183256543 0.000777643175
0.271254836 0.0173011164 0.000785929259
0.2723464002 0.0148208923 0.00077978677
0.2734379643 0.0143563389 0.000781827229
0.2745295285 0.012963439 0.000779541805
0.2756211086 0.0146447328 0.000770201825
0.2767126728 0.0133271808 0.000767146029
0.2778042529 0.0133080798 0.000764911304
0.2788958011 0.0117158643 0.000768570172
0.2799873812 0.0108546935 0.000762939893
0.2810789454 0.0104956587 0.000768804064
0.2821705255 0.0113121167 0.000760703573
0.2832620738 0.00919885135 0.000751829137
0.2843536539 0.00913320117 0.000767246447
0.285445218 0.00812447722 0.000774781487
0.2865367981 0.00906971877 0.000774447654
0.2876283464 0.00874999201 0.000772731806
0.2887199265 0.00744035177 0.000756177873
0.2898114907 0.00699863678 0.000760162626
0.2909030708 0.00672492368 0.000755758987
0.2919946349 0.00735649777 0.000758316022
0.2930861991 0.00718855777 0.000756769017
0.2941777633 0.0069469897 0.000759074889
0.2952693434 0.00692699674 0.000763408489
0.2963609076 0.0060851481 0.000767235721
0.2974524877 0.00622008745 0.000777790774
0.2985440359 0.00666446048 0.000774738817
0.299635616 0.00559925741 0.000786466171
0.3007271802 0.00580280984 0.000790580583
0.3018187603 0.00606845173 0.00078542553
0.3029103085 0.00418121305 0.000801747205
0.3040018886 0.00431738251 0.000798691502
0.3050934528 0.0059653753 0.000803292708
0.3061850329 0.00626703271 0.000802608665
0.3072765812 0.00517827425 0.000807361585
0.3083681613 0.00526191694 0.000818660455
0.3094597254 0.0044644262 0.000808404819
0.3105513055 0.005068297 0.000815280462
0.3116428697 0.00565777792 0.000816459568
0.3127344339 0.00511139035 0.000804747559
0.3138259981 0.00436460967 0.00082760235
0.3149175781 0.00496020404 0.000817609538
0.3160091582 0.00416162147 0.000835409774
0.3171007224 0.00452091095 0.000820501172
0.3181922866 0.00642672444 0.000819534362
0.3192838667 0.00591377606 0.000824660931
0.320375415 0.00417567803 0.00083242402
0.321466995 0.00482016609 0.000846817567
0.3225585751 0.00493769554 0.000838142075
0.3236501393 0.00522146297 0.00085006656
0.3247416876 0.00489234507 0.000840829043
0.3258332677 0.00379446476 0.000850776248
0.3269248478 0.00358296471 0.000870196629
0.3280164119 0.00415918811 0.000848735479
0.3291079602 0.00401854044 0.000870300282
0.3301995403 0.00552873522 0.000864396959
0.3312911204 0.00413817343 0.000879394417
0.3323827005 0.00369092687 0.000888615057
0.3334742328 0.00417275421 0.000873123463
0.3345658129 0.00595316995 0.000876613753
0.335657393 0.00411725979 0.000864502989
0.3367489731 0.00366921444 0.000881761644
0.3378405054 0.00224585834 0.000881795414
0.3389320855 0.0028848247 0.000875648869
0.3400236656 0.00270338001 0.000906023192
0.3411152457 0.00329336693 0.000883411594
0.3422067781 0.00479991811 0.000907407307
0.3432983582 0.00470799432 0.000901059819
0.3443899383 0.00338920404 0.000902715386
0.3454815184 0.00504141997 0.000916654731
0.3465730507 0.00361552013 0.00089876697
0.3476646308 0.00332720871 0.000923712971
0.3487562109 0.00354452763 0.000911434579
0.349847791 0.00233921967 0.000920436664
0.3509393392 0.0022514588 0.00092065296
0.3520309034 0.00412070746 0.0009167662
0.3531224835 0.00356884393 0.000941032205
0.3542140636 0.00356674684 0.000924205969
0.3553056119 0.00294216185 0.000948206864
0.356397176 0.00391556477 0.000945169916
0.3574887561 0.00316993936 0.00094924621
0.3585803362 0.0032445459 0.000966169788
0.3596718845 0.00317496343 0.000953095296
0.3607634646 0.00222251227 0.000963018147
0.3618550288 0.00245526821 0.000943671785
0.3629466088 0.00140291956 0.000962871209
0.3640381571 0.00285413502 0.000954938067
0.3651297372 0.00257947416 0.00095210443
0.3662213173 0.00420142253 0.000969319934
0.3673128815 0.00364810875 0.000966827032
0.3684044297 0.0024896675 0.00097200354
0.3694960098 0.00317364151 0.000963635659
0.3705875899 0.00298995873 0.00098176096
0.37167917 0.00256111256 0.000999058246
0.3727707024 0.0034384398 0.000987904115
0.3738622825 0.00278594058 0.000997505781
0.3749538625 0.00257452045 0.00098936397
0.3760454426 0.00321755352 0.000997046174
0.377136975 0.00415943907 0.000995669179
0.3782285551 0.00135366383 0.00100607199
0.3793201352 0.000454010165 0.00105049018
0.3804117153 0.00176787836 0.00107263112
0.3815032476 0.00230238897 0.00111203339
0.3825948277 0.0016971281 0.00114228708
0.3836864078 0.00269975581 0.0011364175
0.3847779879 0.00243974402 0.00117665129
0.385869568 0.00166987202 0.00120030752
0.3869611003 0.00209252193 0.00119336045
0.3880526804 0.001217974 0.00123663524
0.3891442605 0.00143414309 0.00126039832
0.3902358406 0.00203447974 0.00125969345
0.392418953 0.00148618563 0.00130360498
0.3935105331 0.00279216574 0.00133294382
0.3946021132 0.00451530279 0.00136918691
0.3956936456 0.00471789171 0.00137654143
0.3967852257 0.00114340729 0.00139722134
0.3978768058 0.000985467518 0.00141392682
0.4011514983 0.0015003772 0.00149601475
0.4022430784 0.000540118025 0.00152222573
0.4033346585 0.00113016028 0.00149885561
0.4044262067 0.00136881326 0.00151504045
0.4055177868 0.00233128236 0.00156118593
0.406609351 0.0010346355 0.00157556131
0.4077009311 0.00103871899 0.00160632186
0.4087924794 0.00194208657 0.00163036633
0.4098840595 0.00100030121 0.00163103157
0.4109756395 0.000274927656 0.00162098845
0.4120672037 0.00287954795 0.00158806706
0.413158752 0.00208662234 0.00166203801
0.4142503321 0.00492943116 0.00175305448
0.4153419122 0.00171862744 0.00178654087
0.4164334763 0.0026872668 0.00175819377
0.4175250246 0.00373807771 0.00176296278
0.4186166047 0.00404549298 0.00184110071
0.4197081848 0.00383489906 0.0018729911
0.4207997649 0.00197804524 0.00184463451
0.4229828773 0.0024112823 0.00188552276
0.4240744574 0.00382611747 0.0019459945
0.4251660375 0.000852171458 0.00203685243
0.4273491499 0.000918957067 0.00206597152
0.42844073 0.00144200387 0.00214120782
0.4295323101 0.00293775753 0.0021321181
0.4306238425 0.00681698568 0.00217926082
0.4328070027 0.00225191773 0.00226430688
0.4338985828 0.00456072911 0.00227871057
0.4349901151 0.00454679565 0.00236180442
0.4360816952 0.00077700448 0.00236491517
0.4371732753 0.00294177234 0.00239460598
0.4382648554 0.00174131614 0.00249631214
0.4404479678 0.0004806447 0.0026407187
0.4415395479 0.000956529685 0.00274573457
0.442631128 0.00274352011 0.00281682572
0.4437226763 0.00245132272 0.00282309018
0.4448142404 0.00398193455 0.00284836256
0.4459058205 0.00213110609 0.00314079881
0.4469974006 0.00210297734 0.00325232071
0.4480889489 0.000473759865 0.00336577413
0.449180529 0.00222177769 0.00365110486
0.4502720932 0.00140709733 0.003803126
0.4513636733 0.00424193692 0.00400276867
0.4524552215 0.0016930632 0.0041467888
0.4535468016 0.00133665266 0.00393572114
0.4579130742 0.00663395285 0.00659198956
0.4590046543 0.00227689495 0.00767722949
0.4611877986 0.0136173828 0.0107957782
0.4622793469 0.00839346368 0.0137555426

