# s I dI
0.008186765547 50.9025259 0.344682937
0.009278334181 41.8896907 0.267677662
0.01036990266 33.3747191 0.209085902
0.01146147129 26.8822615 0.172315855
0.01255303992 22.1308925 0.150909135
0.01364460967 18.2835913 0.126609048
0.01473617814 15.3343439 0.114164252
0.01582774678 12.9799203 0.0987777367
0.01691931477 11.1648347 0.0896931424
0.01801088373 9.79349258 0.0826602008
0.01910245268 8.39029833 0.0713069324
0.02019402163 7.36305899 0.0668795984
0.02128558899 6.50351226 0.0599718674
0.02237715794 5.65784878 0.0552704701
0.02346872689 5.05696803 0.0508244387
0.02456029585 4.49740828 0.0465274491
0.02565186321 3.99084541 0.0435678307
0.02674343534 3.55725446 0.0393319086
0.02783500429 3.21423812 0.037362542
0.02892657165 2.92702145 0.0346179112
0.03001814061 2.65181421 0.0324673527
0.03110970956 2.41128386 0.0307675471
0.03220127851 2.18005111 0.0280735335
0.03329284587 1.95280928 0.026667102
0.03438441482 1.7835152 0.0247400823
0.03547598377 1.63852247 0.0235335701
0.03656755272 1.50343924 0.0224407512
0.03765912009 1.40313273 0.0208318177
0.03875068904 1.29944564 0.0202051754
0.03984225799 1.20534943 0.0188953686
0.04093382694 1.14781369 0.0184353291
0.0420253943 1.09090829 0.0177036111
0.04311696325 1.00079395 0.0166580967
0.0442085322 0.941786848 0.0161663139
0.04530010116 0.907276875 0.0154119619
0.04639167011 0.840989259 0.0148665172
0.04748323747 0.796409835 0.0142161971
0.04857480642 0.734789057 0.0135512888
0.04966637537 0.700998903 0.0132091696
0.05075794432 0.659905876 0.0124748891
0.05184951168 0.623493507 0.0122016293
0.05294108541 0.575395701 0.0115060743
0.05403265436 0.568053588 0.0113738327
0.05512422331 0.538117176 0.0110387432
0.05621579067 0.503798714 0.0104030076
0.05730735963 0.486720707 0.010294266
0.05839892858 0.479427166 0.0100061502
0.05949049753 0.449053326 0.00970082915
0.06058206489 0.435622188 0.00943157826
0.06167363384 0.4141184 0.00910977329
0.06276520279 0.405423096 0.00904657609
0.06385677175 0.387437986 0.00871700807
0.0649483407 0.366524199 0.00870767549
0.06603990806 0.366099691 0.00870461461
0.06713147701 0.355798833 0.00860963726
0.06822304596 0.354099427 0.00865772623
0.06931461491 0.33489647 0.00826179528
0.07040618227 0.322950936 0.00828730522
0.07149775123 0.319450205 0.00813646766
0.07258932018 0.317867614 0.0081420159
0.07368088913 0.300051705 0.0079708598
0.07477245649 0.29267517 0.00769549105
0.07586402544 0.304449094 0.00797311645
0.07695559439 0.303010896 0.00781406
0.07804716335 0.28573489 0.00766657003
0.07913873071 0.299017695 0.00777756535
0.08023030443 0.29540805 0.00766462084
0.08132187338 0.296729567 0.00774811251
0.08241344234 0.295681782 0.00759858723
0.08350501129 0.284071855 0.00753377605
0.08459657865 0.28309061 0.00738078983
0.0856881476 0.284177351 0.00722887589
0.08677971655 0.287293132 0.00716563469
0.0878712855 0.27621183 0.00684845371
0.08896285286 0.270780613 0.00680613474
0.09005442182 0.280642353 0.00678901107
0.09114599077 0.282754054 0.00675941765
0.09223755972 0.272590616 0.00662554841
0.09332912708 0.266001919 0.00642178912
0.09442069603 0.27083553 0.00648524655
0.09551226498 0.267995747 0.0063458442
0.09660383394 0.265444377 0.00630313163
0.09769540289 0.265261714 0.00624642893
0.09878697025 0.25947817 0.00614029006
0.0998785392 0.251515956 0.00602601481
0.1009701082 0.253178914 0.00596225826
0.1020616771 0.246857492 0.00589389154
0.1031532445 0.255041985 0.00592896326
0.1042448134 0.252688461 0.00585862205
0.1053363824 0.252675815 0.00583449046
0.1064279513 0.24938157 0.00572014924
0.1075195187 0.24525807 0.00568492396
0.1086110876 0.236506091 0.00555134326
0.1097026566 0.248680486 0.0056536612
0.1107942255 0.25138224 0.00563800259
0.1118857929 0.24904525 0.00555782518
0.1129773618 0.249740478 0.00556670121
0.1140689308 0.243656732 0.00545059397
0.1151604998 0.242192865 0.00543211646
0.1162520687 0.23789596 0.00535957524
0.1173436361 0.239374589 0.00533064438
0.118435205 0.231882265 0.00524736074
0.119526774 0.230012782 0.00517437673
0.1206183429 0.232939812 0.00520158101
0.1217099103 0.23500078 0.00516309706
0.1228014792 0.231996611 0.00514168174
0.1238930482 0.231610933 0.00512112667
0.1249846171 0.225634921 0.0049841739
0.1260761845 0.231023369 0.00506516272
0.1271677534 0.223717762 0.00492884354
0.1282593224 0.219648498 0.00488984044
0.1293508913 0.216936782 0.00485137427
0.1304424587 0.213480677 0.00475507485
0.1315340277 0.205273136 0.00469358537
0.1326255966 0.207092916 0.00466059909
0.1337171656 0.206753711 0.00465989277
0.1348087345 0.203492034 0.00458577669
0.1359003019 0.202620666 0.00456010509
0.1369918708 0.200111143 0.00455934111
0.1380834398 0.200441403 0.00447873513
0.1391750087 0.191982812 0.00443030276
0.1402665856 0.18843805 0.00435506054
0.1413581546 0.18778799 0.00431812915
0.1424497235 0.188989258 0.00434407418
0.1435412925 0.18419352 0.00422921268
0.1446328599 0.187398921 0.00428213586
0.1457244288 0.183521266 0.0042080781
0.1468159978 0.177615391 0.00415685626
0.1479075667 0.183973026 0.00426251979
0.1489991341 0.181534666 0.00424948638
0.150090703 0.177046825 0.00425087429
0.151182272 0.175239599 0.00419208286
0.1522738409 0.181047372 0.00429147965
0.1533654099 0.184145405 0.00431102296
0.1544569772 0.178535125 0.00426440919
0.1555485462 0.184202728 0.0043483915
0.1566401151 0.185078253 0.00430153475
0.1577316841 0.178296502 0.00427503233
0.1588232515 0.184657128 0.00431125881
0.1599148284 0.186535722 0.00435321629
0.1610063766 0.187258369 0.00438286295
0.1620979567 0.200991806 0.00444766405
0.1631895209 0.19578503 0.00444954798
0.164281101 0.197016653 0.00440783484
0.1653726493 0.19607254 0.00442953271
0.1664642293 0.203492254 0.00448325397
0.1675557935 0.20795387 0.004503044
0.1686473736 0.212579659 0.00450011149
0.1697389219 0.224570535 0.00450117382
0.170830502 0.233463641 0.00457733387
0.1719220661 0.227155744 0.00446499836
0.1730136462 0.232259233 0.00449118637
0.1741052104 0.245617655 0.0046064129
0.1751967746 0.245887704 0.00452641835
0.1762883547 0.257848411 0.00465394454
0.1773799189 0.27232657 0.00470649297
0.178471499 0.284685912 0.00479209179
0.1795630472 0.285833387 0.00481099021
0.1806546273 0.290782323 0.00476727418
0.1817461915 0.30378347 0.00488193367
0.1828377716 0.313259255 0.00489888792
0.1839293358 0.326224311 0.00500058504
0.1850208999 0.332130271 0.00500655642
0.1861124641 0.337552956 0.00501578051
0.1872040442 0.349142274 0.00509452065
0.1882956084 0.345566597 0.00500409598
0.1893871885 0.356863291 0.00509042551
0.1904787367 0.352349198 0.0050277764
0.1915703168 0.356885822 0.00505355372
0.192661881 0.367442497 0.00512862274
0.1937534611 0.363598432 0.00503238169
0.1948450094 0.356949636 0.00501858908
0.1959365895 0.356124118 0.00495880358
0.1970281536 0.345897534 0.00489938602
0.1981197337 0.353485026 0.00493770626
0.199211282 0.349269118 0.00487152214
0.2003028621 0.354556518 0.00491915094
0.2013944263 0.346068892 0.00480612284
0.2024860063 0.34820593 0.00483439961
0.2035775705 0.34806707 0.00479615381
0.2046691347 0.34100669 0.00474691711
0.2057606989 0.339833476 0.00473639962
0.206852279 0.336871747 0.0046714432
0.2079438432 0.338795389 0.00469970642
0.2090354232 0.339810866 0.00467147452
0.2101269715 0.333159056 0.00462679054
0.2112185516 0.339971721 0.00466893462
0.2123101158 0.34299464 0.00463280572
0.2134016959 0.344320788 0.00466099882
0.2144932441 0.33927373 0.00459923466
0.2155848242 0.34444963 0.00462831086
0.2166763884 0.344741222 0.00460760726
0.2177679685 0.338240265 0.00455208144
0.2188595168 0.352840888 0.00463748589
0.2199510968 0.351229102 0.00459693967
0.221042661 0.352749496 0.00460587195
0.2221342411 0.353121929 0.00458421048
0.2232258053 0.355950568 0.00459835657
0.2243173695 0.363934319 0.00463599797
0.2254089336 0.360799997 0.0045910733
0.2265005137 0.356014455 0.00456428765
0.2275920779 0.354387747 0.00453273391
0.228683658 0.35135007 0.00450514882
0.2297752063 0.34888493 0.00448051772
0.2308667864 0.340353943 0.00439822476
0.2319583505 0.338956254 0.00439924673
0.2330499306 0.332360308 0.00433726984
0.2341414789 0.320472853 0.00426903646
0.235233059 0.316244289 0.00421993576
0.2363246232 0.303039695 0.00412473157
0.2374162033 0.296830108 0.00409260486
0.2385077515 0.286800944 0.00399251958
0.2395993316 0.268842281 0.00388863287
0.2406908958 0.259723355 0.00381056361
0.2417824759 0.256268889 0.00378610401
0.2428740401 0.240649331 0.00368801643
0.2439656042 0.233084748 0.0035882686
0.2450571843 0.221806892 0.00352717705
0.2461487485 0.208326288 0.00340714857
0.2472403286 0.20370732 0.00339009564
0.2483318928 0.192025138 0.00328488102
0.249423457 0.185493077 0.00321788862
0.2505150211 0.177548499 0.00317367868
0.2516066012 0.171884596 0.00310404588
0.2526981654 0.157424091 0.00299811621
0.2537897296 0.149749038 0.00292099327
0.2548812938 0.150394491 0.00291653971
0.2559728738 0.144848696 0.00288135259
0.257064438 0.137581523 0.00279073929
0.2581560181 0.130622334 0.00274288873
0.2592475664 0.124081785 0.00266661177
0.2603391465 0.120980794 0.00264952649
0.2614307106 0.114953161 0.00262153187
0.2625222907 0.109931486 0.00258172976
0.263613839 0.105446861 0.00256156966
0.2647054191 0.0996569372 0.00248935503
0.2657969833 0.0965170292 0.00248646512
0.2668885634 0.0925998921 0.00245130925
0.2679801116 0.0915796794 0.00244675037
0.2690716917 0.0875812447 0.00243353707
0.2701632559 0.0761140071 0.0023219686
0.271254836 0.0769681922 0.0023620177
0.2723464002 0.0747353928 0.00233145956
0.2734379643 0.0723446419 0.00232916046
0.2745295285 0.0686419564 0.00230374531
0.2756211086 0.0669963737 0.00227193161
0.2767126728 0.0637573963 0.00226713697
0.2778042529 0.0623584541 0.0022356999
0.2788958011 0.0622406247 0.00224674298
0.2799873812 0.0531303363 0.00212633547
0.2810789454 0.0515871625 0.00210622186
0.2821705255 0.0553978817 0.00218201076
0.2832620738 0.0520949874 0.00213252868
0.2843536539 0.0498693367 0.00210660556
0.285445218 0.0487366342 0.00209625743
0.2865367981 0.0454865122 0.00206420003
0.2876283464 0.0452181874 0.00206317602
0.2887199265 0.045918277 0.00204243522
0.2898114907 0.044390205 0.00204782677
0.2909030708 0.0423240465 0.00201330848
0.2919946349 0.0423137202 0.00203614677
0.2930861991 0.0392118515 0.00200439065
0.2941777633 0.0386980495 0.00198370378
0.2952693434 0.0339109653 0.00193255807
0.2963609076 0.0337239974 0.00194712159
0.2974524877 0.0324527619 0.0019700671
0.2985440359 0.0340839035 0.00200471765
0.299635616 0.0342075749 0.00200867226
0.3007271802 0.0353190329 0.00206567086
0.3018187603 0.0333784223 0.00201166604
0.3029103085 0.0301375846 0.00197205085
0.3040018886 0.029711261 0.00196992497
0.3050934528 0.03188128 0.00202037797
0.3061850329 0.0291677325 0.00200083904
0.3072765812 0.0291675587 0.00198858089
0.3083681613 0.0290772745 0.00201011002
0.3094597254 0.0281145212 0.00197832772
0.3105513055 0.031217598 0.00204957889
0.3116428697 0.0292716148 0.0020024039
0.3127344339 0.0267615426 0.00197570024
0.3138259981 0.0247871479 0.0019699919
0.3149175781 0.0243101594 0.00194225489
0.3160091582 0.0236682014 0.0019734494
0.3171007224 0.0260231471 0.00196204381
0.3181922866 0.0258004615 0.00199199082
0.3192838667 0.0276253336 0.00203043353
0.320375415 0.0279856225 0.00204401393
0.321466995 0.0253302102 0.00201079209
0.3225585751 0.0276279395 0.00206174349
0.3236501393 0.024015634 0.00202526935
0.3247416876 0.0269111752 0.00208406213
0.3258332677 0.0243132825 0.00203367921
0.3269248478 0.0248683401 0.00205590948
0.3280164119 0.0258576508 0.00205031037
0.3291079602 0.0231524128 0.00205309185
0.3301995403 0.025751374 0.00208382305
0.3312911204 0.0208202428 0.00202236566
0.3323827005 0.0248512186 0.00209862975
0.3334742328 0.0226920022 0.00202943891
0.3345658129 0.0212712953 0.00206977093
0.335657393 0.0236047883 0.00206359289
0.3367489731 0.0259347098 0.00215748843
0.3378405054 0.020666179 0.00206555341
0.3389320855 0.0222981726 0.00208658506
0.3400236656 0.021418557 0.00211295405
0.3411152457 0.0236826175 0.00211334234
0.3422067781 0.0229931715 0.0021442271
0.3432983582 0.0204016685 0.00208717253
0.3443899383 0.0236335597 0.00215901498
0.3454815184 0.022385715 0.00215891608
0.3465730507 0.0209477182 0.00210327956
0.3476646308 0.021135013 0.00212759432
0.3487562109 0.0218612687 0.00214387565
0.349847791 0.0225310247 0.00216565245
0.3509393392 0.0220339334 0.00215570281
0.3520309034 0.0224525443 0.00219005619
0.3531224835 0.01947488 0.00217416931
0.3542140636 0.0178881991 0.00208159524
0.3553056119 0.0211813409 0.00220729437
0.356397176 0.0176446512 0.00211226165
0.3574887561 0.0191462315 0.00218640434
0.3585803362 0.0179499469 0.002151314
0.3596718845 0.0205094868 0.00218314386
0.3607634646 0.0181107534 0.00215528478
0.3618550288 0.0183184834 0.00217529149
0.3629466088 0.0177143561 0.00218261452
0.3640381571 0.0181584804 0.0021754774
0.3651297372 0.0169057776 0.00215730096
0.3662213173 0.0230585474 0.00231445669
0.3673128815 0.021259831 0.00223322334
0.3684044297 0.0181565301 0.00223034285
0.3694960098 0.0187310162 0.00222928177
0.3705875899 0.0166911656 0.00222340282
0.37167917 0.0183271623 0.00227052199
0.3727707024 0.0181601689 0.00225477104
0.3738622825 0.0175451321 0.00226290359
0.3749538625 0.0201126557 0.00230317353
0.3760454426 0.0180879771 0.00226997945
0.377136975 0.0193772498 0.00232129263
0.3782285551 0.0172210995 0.00228965556
0.3793201352 0.0129285912 0.00230329069
0.3804117153 0.0139142995 0.00237500589
0.3815032476 0.0172141644 0.00248028317
0.3825948277 0.0178166174 0.00256040242
0.3836864078 0.0196050043 0.00266040782
0.3847779879 0.0184576004 0.0026329437
0.385869568 0.0161031759 0.00263367554
0.3869611003 0.0217510424 0.00280748033
0.3880526804 0.0212641721 0.00287689747
0.3891442605 0.0188903581 0.0028347367
0.3902358406 0.0160114459 0.00280737541
0.3913273729 0.0182444981 0.00294620515
0.392418953 0.0164905312 0.00292035831
0.3935105331 0.0162113635 0.00298525462
0.3946021132 0.0171711461 0.00301016446
0.3956936456 0.0123503132 0.00296853876
0.3967852257 0.0160848194 0.00315214867
0.3978768058 0.013936407 0.00319609893
0.3989683858 0.0160334467 0.00320166965
0.4000599341 0.0160869448 0.00323089549
0.4011514983 0.0142450382 0.00319937359
0.4022430784 0.0150118364 0.0032624409
0.4033346585 0.0154770812 0.00335371129
0.4044262067 0.0181925227 0.00349626938
0.4055177868 0.0148704846 0.00337769396
0.406609351 0.015707733 0.00341350854
0.4077009311 0.0171529349 0.00359562865
0.4087924794 0.0132159649 0.00357707699
0.4098840595 0.0140233176 0.0035504114
0.4109756395 0.0147379279 0.00358383902
0.4120672037 0.0170669139 0.0037328217
0.413158752 0.0111745164 0.00363832243
0.4142503321 0.0179624727 0.00377129935
0.4153419122 0.0215248484 0.00402045126
0.4164334763 0.0168661 0.00394851873
0.4175250246 0.0142732577 0.00397103986
0.4186166047 0.0124691995 0.00392491091
0.4197081848 0.0161169281 0.00407053713
0.4207997649 0.0214786684 0.00435623183
0.4218912972 0.0160348369 0.00433986706
0.4229828773 0.0206486596 0.00435259085
0.4240744574 0.00884999154 0.00394248125
0.4251660375 0.0132978646 0.00434515742
0.4262575699 0.0256280383 0.00483639111
0.4273491499 0.0205524342 0.00467423957
0.42844073 0.0174391521 0.0047384016
0.4295323101 0.0123060384 0.00456293887
0.4306238425 0.00668996333 0.00447647877
0.4317154226 0.0170213948 0.00497424378
0.4328070027 0.0182008163 0.0050780797
0.4338985828 0.0165811667 0.00509635472
0.4349901151 0.0155228994 0.00526889601
0.4360816952 0.0178044403 0.00548733625
0.4371732753 0.010119851 0.00520308581
0.4382648554 0.0078580234 0.00503383608
0.4393564036 0.0110652266 0.00544375666
0.4404479678 0.0181672415 0.00597442586
0.4415395479 0.0164793556 0.00650125326
0.442631128 0.0161104666 0.00618750722
0.4437226763 0.010358125 0.00605972372
0.4448142404 0.0157319961 0.00643251387
0.4459058205 0.0210621646 0.00724395609
0.4469974006 0.0121377974 0.00690248312
0.4480889489 0.00826294015 0.00671073176
0.449180529 0.0213466679 0.00783646922
0.4502720932 0.0168253815 0.00853995141
0.4513636733 0.01796207 0.00902509386
0.4524552215 0.0289015911 0.00966408526
0.4535468016 0.0209875692 0.0096899975
0.4546383817 0.035963649 0.0128585251
0.4557299459 0.00980703818 0.0111994053
0.456821526 0.00977560338 0.0120202339
0.4579130742 0.0155007958 0.0139616289
0.4590046543 0.0212381065 0.0179747949
0.4611877986 0.0192980978 0.0228480097
0.4622793469 0.0582209392 0.0383368989

