# s I dI
0.008186765547 7.91201802 0.123427647
0.009278334181 6.02202298 0.0763242001
0.01036990266 4.77203633 0.0478350687
0.01146147129 3.94157441 0.03461357
0.01255303992 3.32593973 0.0289269395
0.01364460967 2.80309468 0.0240468166
0.01473617814 2.40458385 0.0216028238
0.01582774678 2.07951962 0.0187416845
0.01691931477 1.84314584 0.0171764938
0.01801088373 1.60781524 0.0158198257
0.01910245268 1.38268932 0.0135988798
0.02019402163 1.22094682 0.0128060596
0.02128558899 1.07122991 0.0115436133
0.02237715794 0.953396067 0.0107960277
0.02346872689 0.855068953 0.00993074407
0.02456029585 0.769445479 0.00913953956
0.02565186321 0.688430197 0.00866777893
0.02674343534 0.625185008 0.00791787619
0.02783500429 0.564008723 0.00754077869
0.02892657165 0.511658456 0.006975125
0.03001814061 0.456545459 0.00657023601
0.03110970956 0.421065872 0.00628804038
0.03220127851 0.383034118 0.00577444854
0.03329284587 0.346707445 0.00553377916
0.03438441482 0.320561 0.00517681716
0.03547598377 0.296513826 0.00496539536
0.03656755272 0.268677173 0.0047546476
0.03765912009 0.242759362 0.00440044327
0.03875068904 0.224469778 0.00427155792
0.03984225799 0.209874236 0.00401709787
0.04093382694 0.190184475 0.00390307948
0.0420253943 0.180222739 0.00375694723
0.04311696325 0.166731987 0.00356398339
0.0442085322 0.155960068 0.00347324361
0.04530010116 0.14147984 0.00325753648
0.04639167011 0.134195312 0.00317342396
0.04748323747 0.124084461 0.00304345226
0.04857480642 0.11607245 0.00295075869
0.04966637537 0.110433472 0.00287369251
0.05075794432 0.104864924 0.00276884565
0.05184951168 0.0946553444 0.00268083707
0.05294108541 0.0928237561 0.00260539185
0.05403265436 0.0851005398 0.00252616715
0.05512422331 0.0826907437 0.00245523847
0.05621579067 0.0807123755 0.00237834038
0.05730735963 0.0755689883 0.00234107663
0.05839892858 0.070453932 0.00225897811
0.05949049753 0.0677137979 0.00221317843
0.06058206489 0.0668698494 0.00215644505
0.06167363384 0.0619940214 0.00211191775
0.06276520279 0.0589634234 0.00209616675
0.06385677175 0.0583703022 0.00205554261
0.0649483407 0.0567646886 0.00207820619
0.06603990806 0.0543553223 0.0020834553
0.06713147701 0.0538981675 0.00205563114
0.06822304596 0.0529696264 0.00205527723
0.06931461491 0.0528344181 0.00199194338
0.07040618227 0.0479267194 0.00202762917
0.07149775123 0.0484414415 0.00200037106
0.07258932018 0.049046649 0.00200140761
0.07368088913 0.0478272751 0.0019868721
0.07477245649 0.0467575698 0.00192368712
0.07586402544 0.0461949552 0.00198049969
0.07695559439 0.0464215993 0.00193361904
0.07804716335 0.0458300176 0.00193239548
0.07913873071 0.044001136 0.0019121382
0.08023030443 0.0456606213 0.00188905328
0.08132187338 0.0448412567 0.00190229677
0.08241344234 0.0461457556 0.00190318595
0.08350501129 0.04550206 0.00190847651
0.08459657865 0.0442462651 0.00185768837
0.0856881476 0.044226588 0.00182443866
0.08677971655 0.0443602351 0.00178496556
0.0878712855 0.0453842168 0.00174564211
0.08896285286 0.0451749293 0.00175875297
0.09005442182 0.0460825968 0.00173419232
0.09114599077 0.045883303 0.00170386045
0.09223755972 0.0442368226 0.00169889962
0.09332912708 0.0456657592 0.00166037886
0.09442069603 0.0451186803 0.00167550189
0.09551226498 0.0493479146 0.00165770123
0.09660383394 0.0456215228 0.00163603029
0.09769540289 0.0443953916 0.00161039556
0.09878697025 0.0460911697 0.00161644485
0.0998785392 0.0488956745 0.00162077852
0.1009701082 0.0483863185 0.00159326856
0.1020616771 0.0491721203 0.0016026868
0.1031532445 0.0470648498 0.00158034346
0.1042448134 0.0484937861 0.00156631632
0.1053363824 0.0491061368 0.00155906627
0.1064279513 0.049321806 0.00153397396
0.1075195187 0.0488318884 0.00153858089
0.1086110876 0.0462806986 0.00152488341
0.1097026566 0.0461565759 0.00151120941
0.1107942255 0.0503156118 0.00151643689
0.1118857929 0.0476412681 0.00148052844
0.1129773618 0.0454612978 0.00147095615
0.1140689308 0.0467365839 0.00146669275
0.1151604998 0.0450620331 0.00146249229
0.1162520687 0.0472970428 0.00146648553
0.1173436361 0.0456000504 0.00144352025
0.118435205 0.0468016152 0.00143981803
0.119526774 0.0439518984 0.00142007966
0.1206183429 0.0441770489 0.00140780427
0.1217099103 0.0412796537 0.00136842439
0.1228014792 0.0411398989 0.00138608535
0.1238930482 0.0412689708 0.00136648102
0.1249846171 0.0400597606 0.00134440421
0.1260761845 0.0383976241 0.00133969453
0.1271677534 0.0374790308 0.00131580972
0.1282593224 0.03855646 0.00131568416
0.1293508913 0.0364283496 0.0013041827
0.1304424587 0.036505391 0.00128340795
0.1315340277 0.0363575391 0.00128291424
0.1326255966 0.0334037271 0.00126480201
0.1337171656 0.0326172753 0.00125038783
0.1348087345 0.0341835406 0.00124136665
0.1359003019 0.0324508049 0.00122722641
0.1369918708 0.0291450484 0.00122709057
0.1380834398 0.0307216333 0.00120203285
0.1391750087 0.0283188091 0.00120432649
0.1402665856 0.0287011596 0.00120052397
0.1413581546 0.0317474975 0.00119040801
0.1424497235 0.0287380425 0.00118101021
0.1435412925 0.0278728137 0.00116099877
0.1446328599 0.0289357805 0.00116750071
0.1457244288 0.027725516 0.00116077049
0.1468159978 0.0273956367 0.00115824978
0.1479075667 0.028360447 0.00117117383
0.1489991341 0.0282107564 0.00117570952
0.150090703 0.0275853659 0.00118148299
0.151182272 0.0285788664 0.00117244564
0.1522738409 0.0294909512 0.00119272861
0.1533654099 0.0275964102 0.00117555756
0.1544569772 0.0280704447 0.00118627396
0.1555485462 0.0301271946 0.00120909442
0.1566401151 0.0295471914 0.0011853739
0.1577316841 0.030874717 0.00120438422
0.1588232515 0.030626798 0.00119979663
0.1599148284 0.0315998709 0.00122001348
0.1610063766 0.0323477202 0.00123073576
0.1620979567 0.0333068189 0.0012157444
0.1631895209 0.0333989136 0.00123230322
0.164281101 0.0354109496 0.00122207529
0.1653726493 0.0375396465 0.00125068622
0.1664642293 0.0405484023 0.00125904621
0.1675557935 0.0424893304 0.00126812728
0.1686473736 0.04295237 0.00125847449
0.1697389219 0.0441504053 0.00123367121
0.170830502 0.0447121343 0.00123569451
0.1719220661 0.0465248099 0.00122695514
0.1730136462 0.0486461015 0.00124116931
0.1741052104 0.0528672415 0.00126979945
0.1751967746 0.0528176334 0.00124468364
0.1762883547 0.0551534726 0.00127678318
0.1773799189 0.0567731312 0.00126262425
0.178471499 0.0585320197 0.00126540493
0.1795630472 0.0600249134 0.00128906249
0.1806546273 0.0640095664 0.00128590032
0.1817461915 0.0673861725 0.00129912433
0.1828377716 0.0696713342 0.00130612726
0.1839293358 0.0711755741 0.00131938383
0.1850208999 0.0735644976 0.00131742989
0.1861124641 0.0783486511 0.00133404673
0.1872040442 0.0845862663 0.00135605782
0.1882956084 0.0845039702 0.0013392754
0.1893871885 0.0911465531 0.00136492783
0.1904787367 0.0905626134 0.00136473828
0.1915703168 0.0940500446 0.00138086481
0.192661881 0.0969662433 0.00139857014
0.1937534611 0.0990745665 0.00139033687
0.1948450094 0.100694994 0.00140519902
0.1959365895 0.106430209 0.00140998776
0.1970281536 0.108674712 0.00142397786
0.1981197337 0.110231322 0.00143075852
0.199211282 0.114546666 0.00143904982
0.2003028621 0.116864927 0.00144825727
0.2013944263 0.119785853 0.00144246143
0.2024860063 0.122703041 0.00145685119
0.2035775705 0.12633208 0.00145841833
0.2046691347 0.12810098 0.00146764641
0.2057606989 0.131634029 0.00147778621
0.206852279 0.130113262 0.00146109573
0.2079438432 0.133429238 0.0014812191
0.2090354232 0.135445495 0.0014771349
0.2101269715 0.137088497 0.00148434804
0.2112185516 0.137620566 0.00148693262
0.2123101158 0.139994844 0.00147298002
0.2134016959 0.138215248 0.0014775813
0.2144932441 0.13998872 0.00147502298
0.2155848242 0.139429743 0.00147339225
0.2166763884 0.138221592 0.0014557279
0.2177679685 0.137126715 0.0014498031
0.2188595168 0.138975557 0.00145403385
0.2199510968 0.1363979 0.00143555114
0.221042661 0.136012836 0.00143226817
0.2221342411 0.134543852 0.0014190516
0.2232258053 0.132618887 0.00141408757
0.2243173695 0.131717996 0.00140527997
0.2254089336 0.131089988 0.00139527882
0.2265005137 0.128522423 0.00138284899
0.2275920779 0.123270318 0.0013594935
0.228683658 0.120968105 0.00135050854
0.2297752063 0.116953551 0.00132867604
0.2308667864 0.114866571 0.00130783126
0.2319583505 0.110659336 0.00129723159
0.2330499306 0.110530013 0.00129132381
0.2341414789 0.105621374 0.00127221238
0.235233059 0.103312923 0.00125051842
0.2363246232 0.0982175563 0.00122672616
0.2374162033 0.0951124673 0.00121844824
0.2385077515 0.0915032996 0.00119234762
0.2395993316 0.0863653139 0.00117329129
0.2406908958 0.0831158437 0.00115890065
0.2417824759 0.0796833168 0.0011411999
0.2428740401 0.0763311378 0.00113114184
0.2439656042 0.072718205 0.00109545566
0.2450571843 0.0700939873 0.00108609704
0.2461487485 0.0675394691 0.00107186454
0.2472403286 0.0634088786 0.00106201669
0.2483318928 0.0603491323 0.00103697224
0.249423457 0.0573841271 0.00101482297
0.2505150211 0.0553049843 0.00101289136
0.2516066012 0.0514855262 0.000991172076
0.2526981654 0.0489115539 0.000977405543
0.2537897296 0.0460678217 0.000958876906
0.2548812938 0.0455809862 0.000949486996
0.2559728738 0.042111284 0.000938484156
0.257064438 0.039453179 0.000915551223
0.2581560181 0.038390439 0.000911219843
0.2592475664 0.0357007073 0.000891163429
0.2603391465 0.0340528577 0.00088848347
0.2614307106 0.0319040255 0.000885244653
0.2625222907 0.030119697 0.000880310138
0.263613839 0.0291238242 0.000879146058
0.2647054191 0.0280481746 0.000864428256
0.2657969833 0.0267019283 0.000870190839
0.2668885634 0.0250357612 0.000863772412
0.2679801116 0.0234784451 0.000855521468
0.2690716917 0.0210012983 0.000855558489
0.2701632559 0.0193619033 0.000848495695
0.271254836 0.0197588559 0.000858574136
0.2723464002 0.0188175511 0.000847805167
0.2734379643 0.0168301939 0.000848511902
0.2745295285 0.0168715149 0.00085321247
0.2756211086 0.0157939303 0.000842526009
0.2767126728 0.0141556839 0.00084569506
0.2778042529 0.0136394927 0.000836323995
0.2788958011 0.0136939884 0.000838714413
0.2799873812 0.0131981805 0.000829534204
0.2810789454 0.0130257584 0.00082774831
0.2821705255 0.0111114029 0.000831603012
0.2832620738 0.00967543475 0.000823425498
0.2843536539 0.0115449383 0.000827342442
0.285445218 0.00984564875 0.000822621796
0.2865367981 0.00854633003 0.000819901707
0.2876283464 0.00927056024 0.000820437931
0.2887199265 0.0101642272 0.000810423648
0.2898114907 0.00828874188 0.000808818211
0.2909030708 0.00823422164 0.000809095547
0.2919946349 0.00837127028 0.000822646476
0.2930861991 0.00693468454 0.000821770475
0.2941777633 0.00724534301 0.000814805431
0.2952693434 0.00673247724 0.000819082821
0.2963609076 0.00657980435 0.000826868802
0.2974524877 0.00669347005 0.000846806873
0.2985440359 0.00622911602 0.000848372954
0.299635616 0.00671563144 0.000847389884
0.3007271802 0.00419357665 0.000851640432
0.3018187603 0.00583202652 0.000850115785
0.3029103085 0.00641343945 0.000852850059
0.3040018886 0.00575109175 0.0008545198
0.3050934528 0.00579505285 0.000860770108
0.3061850329 0.00438627121 0.000866205968
0.3072765812 0.00543360854 0.000866414467
0.3083681613 0.00508295526 0.000873491098
0.3094597254 0.00476867811 0.000864518107
0.3105513055 0.00561287775 0.000878333604
0.3116428697 0.00528077922 0.000865007448
0.3127344339 0.00431272281 0.000866706852
0.3138259981 0.00384649126 0.000878117188
0.3149175781 0.00485113599 0.000877502613
0.3160091582 0.0036026349 0.000890651374
0.3171007224 0.00524384878 0.00086733584
0.3181922866 0.00598457664 0.000892519032
0.3192838667 0.00588991421 0.000892576496
0.320375415 0.00530595443 0.000897154937
0.321466995 0.00584892623 0.000901724723
0.3225585751 0.00490144061 0.000907061211
0.3236501393 0.00432807458 0.000914684211
0.3247416876 0.00280987661 0.000908157033
0.3258332677 0.00364178586 0.000909278899
0.3269248478 0.00484597278 0.000920762283
0.3280164119 0.00552272543 0.000915312099
0.3291079602 0.00425592847 0.000933716543
0.3301995403 0.00411608713 0.000923288981
0.3312911204 0.0045560062 0.000943381603
0.3323827005 0.00496288925 0.000941712595
0.3334742328 0.00472408121 0.000925495535
0.3345658129 0.00354616191 0.000954395407
0.335657393 0.00439539625 0.000929938141
0.3367489731 0.00377336712 0.00095270288
0.3378405054 0.0031435585 0.000954403288
0.3389320855 0.0045002989 0.000956166501
0.3400236656 0.00412828858 0.000977134516
0.3411152457 0.00411988885 0.000953252633
0.3422067781 0.00344056437 0.000968683364
0.3432983582 0.00392109971 0.000972088839
0.3443899383 0.00427980672 0.000975420566
0.3454815184 0.00428333137 0.000986663086
0.3465730507 0.00324629996 0.000967566252
0.3476646308 0.00356907634 0.0009733489
0.3487562109 0.00341079865 0.000978590984
0.349847791 0.00507725446 0.000991308551
0.3509393392 0.00421187551 0.000983172684
0.3520309034 0.00535715359 0.00101165049
0.3531224835 0.00332742186 0.00101714969
0.3542140636 0.00420840073 0.000992001962
0.3553056119 0.00418066064 0.00102038563
0.356397176 0.00373830407 0.00100694504
0.3574887561 0.00259695512 0.00101994881
0.3585803362 0.00421614728 0.00102302817
0.3596718845 0.00306394691 0.0010053779
0.3607634646 0.00395341572 0.00101839559
0.3618550288 0.00301428903 0.00102564883
0.3629466088 0.00361751305 0.00103853632
0.3640381571 0.00393492438 0.00103034048
0.3651297372 0.00315869212 0.00102833481
0.3662213173 0.00378411265 0.0010421444
0.3673128815 0.00388577355 0.00102079443
0.3684044297 0.00237661709 0.00104311415
0.3694960098 0.00173697752 0.0010309093
0.3705875899 0.00145944878 0.00105082663
0.37167917 0.00247363818 0.00106280038
0.3727707024 0.0024999993 0.00106075234
0.3738622825 0.00198042874 0.00106278124
0.3749538625 0.00368571897 0.00106899612
0.3760454426 0.00362739828 0.00107166248
0.377136975 0.00298823695 0.00108032158
0.3782285551 0.00393044846 0.0010986632
0.3793201352 0.0016089178 0.0011369488
0.3804117153 0.00260971019 0.00116963827
0.3815032476 0.00415763931 0.00118738237
0.3825948277 0.0021707504 0.00120092441
0.3836864078 0.00259576995 0.00123138313
0.3847779879 0.00316760803 0.00122706145
0.385869568 0.00372116555 0.00127105309
0.3869611003 0.00446235768 0.00128000751
0.3880526804 0.00358956963 0.00131703203
0.3891442605 0.00335255394 0.00131916217
0.3902358406 0.00389534681 0.00135534478
0.3913273729 0.0020027546 0.00137238595
0.392418953 0.00336930333 0.0013958118
0.3935105331 0.00413286946 0.00144564311
0.3946021132 0.00429338282 0.00143604337
0.3956936456 0.00167365981 0.00147063031
0.3967852257 0.00235983719 0.00151215945
0.3978768058 0.000525169069 0.00155717222
0.3989683858 0.00271452172 0.00153159016
0.4000599341 0.00510270425 0.00157625073
0.4011514983 0.00233801081 0.00155206411
0.4022430784 0.00350436161 0.00158437018
0.4033346585 0.00204154225 0.0016078963
0.4044262067 0.000499445665 0.00160679598
0.4055177868 0.00274562366 0.00163139512
0.406609351 0.00135310885 0.00160611699
0.4077009311 0.00209323546 0.00169615694
0.4087924794 0.00257861961 0.00178165697
0.4098840595 0.00192070864 0.00172664264
0.4109756395 0.00380064741 0.00175023638
0.4120672037 0.00456007364 0.0017905093
0.413158752 0.00138844534 0.00182884295
0.4142503321 0.00608334058 0.00179768717
0.4153419122 0.00351752269 0.00181357076
0.4164334763 0.00294898136 0.00187597278
0.4175250246 0.00186857519 0.00193587508
0.4186166047 0.00257029455 0.00195834746
0.4197081848 0.00540931355 0.00198831479
0.4207997649 0.00353459751 0.0019798692
0.4229828773 0.0040239826 0.00197342134
0.4240744574 0.00387820528 0.0020655099
0.4251660375 0.00163097207 0.00213067787
0.4262575699 0.00544699404 0.00212767424
0.4273491499 0.00405039263 0.00213229934
0.42844073 0.00291946584 0.00224129294
0.4295323101 0.00316667562 0.00228620909
0.4306238425 0.00281784025 0.00240760373
0.4317154226 0.00484972524 0.00240111376
0.4328070027 0.00580201565 0.00242794222
0.4338985828 0.0039191788 0.00243555025
0.4349901151 0.00125174893 0.0025136183
0.4360816952 0.0017104719 0.00256107334
0.4371732753 0.00340032043 0.00268858539
0.4382648554 0.00323231708 0.00265509323
0.4393564036 0.00246628201 0.00274949839
0.4404479678 0.00221773969 0.00276541436
0.442631128 0.00455670009 0.00299151311
0.4437226763 0.00474562033 0.00315156323
0.4448142404 0.00258797439 0.00303725127
0.4459058205 0.00510444244 0.00335604921
0.4469974006 0.00833029451 0.00362564328
0.4480889489 0.00715563623 0.00364984531
0.449180529 0.00939148053 0.00368384758
0.4513636733 0.00697422429 0.00444656607
0.4524552215 0.00940899618 0.00417183624
0.4535468016 0.0111149656 0.00463495008
0.4590046543 0.00195396725 0.00809292027
0.4600962344 0.000127554435 0.00923750566
0.463370927 0.0359144937 0.0306091792

