# s I dI
0.006228268002 5.44229205 0.618147613
0.007186463043 8.34566811 0.340056384
0.008144657924 10.272225 0.226584805
0.009102852805 10.3014934 0.15184188
0.01006104769 9.38640634 0.106226887
0.01101924257 8.4015785 0.0893992283
0.01197743872 7.53562054 0.0769660414
0.0129356336 6.67310944 0.0698832089
0.01389382849 5.93284258 0.0615850747
0.01485202337 5.28960936 0.0566182929
0.01581021825 4.82413693 0.052375659
0.01676841361 4.32463901 0.0472179025
0.01772660753 3.95504514 0.0447688517
0.01868480305 3.47082997 0.0399256909
0.01964299857 3.17384843 0.0376327854
0.0206011925 2.84275897 0.0347021665
0.02155938801 2.55859998 0.0320311228
0.02251758194 2.3347922 0.0303561202
0.02347578064 2.15288328 0.0277993236
0.02443397457 1.94327177 0.0263818348
0.02539217009 1.83556754 0.024951385
0.02635036401 1.69576805 0.0235113557
0.02730855953 1.56578021 0.0224278766
0.02826675505 1.43667292 0.0209141012
0.02922494897 1.35768945 0.020375167
0.03018314449 1.23121022 0.0187884216
0.03114133842 1.13855751 0.0179347525
0.03209953394 1.06160453 0.0170667662
0.03305772945 0.991090863 0.0161777121
0.03401592338 0.931305633 0.0157887495
0.0349741189 0.896119111 0.0150160964
0.03593231442 0.834838819 0.0143737949
0.03689050834 0.798752592 0.0138723701
0.03784870386 0.749972564 0.0132499251
0.03880690097 0.709114936 0.0130238088
0.03976509649 0.68554723 0.012363889
0.04072329042 0.641968037 0.0120012141
0.04168148593 0.595636117 0.0114446042
0.04263967986 0.587877447 0.0111740075
0.04359787538 0.546487678 0.0108108691
0.0445560709 0.528779213 0.0103911068
0.04551426482 0.492326762 0.0100788441
0.04647246034 0.480637195 0.0096656302
0.04743065427 0.452077783 0.00943275939
0.04838884978 0.435326618 0.00924812817
0.0493470453 0.427773964 0.00902910173
0.05030523923 0.402616433 0.00877271697
0.05126343475 0.388152738 0.00839819125
0.05222163027 0.365501709 0.00822422693
0.05317982419 0.35118834 0.0080270522
0.05413801971 0.345750118 0.00783698697
0.05509621364 0.334095619 0.00776445265
0.05605440915 0.317780747 0.00749070481
0.05701260467 0.31178442 0.00751482431
0.0579707986 0.298539132 0.00737800028
0.05892899412 0.291229955 0.00735762057
0.05988718804 0.279987494 0.00726954571
0.06084538356 0.284652566 0.00719885928
0.06180358385 0.265304561 0.00715117407
0.06276177778 0.261031221 0.00696902208
0.0637199733 0.26303765 0.00701287013
0.06467816882 0.260202614 0.00693625706
0.06563636274 0.254221521 0.00690150934
0.06659455826 0.241571975 0.00680825935
0.06755275219 0.240667058 0.0065755023
0.0685109477 0.246081023 0.00672515557
0.06946914322 0.237893825 0.00653654766
0.07042733715 0.225742278 0.0064231122
0.07138553267 0.229141284 0.00658813798
0.07234372659 0.227016081 0.00637553479
0.07330192211 0.217781494 0.0063786934
0.07426011763 0.221240148 0.00623771261
0.07521831156 0.213330218 0.0060527193
0.07617650707 0.218250778 0.00604692668
0.07713470259 0.212625351 0.00580128817
0.07809289652 0.212563442 0.00571838403
0.07905109204 0.207125052 0.00561673256
0.08000929074 0.207124521 0.00554340123
0.08096748148 0.207080749 0.00546886749
0.08192568177 0.207549792 0.00541684996
0.08288387093 0.20739978 0.00547802019
0.08384207122 0.214746314 0.00537861214
0.08480026037 0.212216166 0.00533378231
0.08575846066 0.212467717 0.00527875437
0.08671665141 0.199112338 0.00515990455
0.08767485011 0.205031096 0.00520368504
0.08863304085 0.200479015 0.00503958281
0.08959124114 0.201180389 0.00514275626
0.09054943029 0.211368441 0.00513059077
0.09150763059 0.209427689 0.00509164721
0.09246581974 0.199201179 0.0049350514
0.09342402003 0.201906729 0.00492499932
0.09438221077 0.199377736 0.00493791998
0.09534040948 0.20399367 0.00487233678
0.09629860022 0.198796001 0.00483010383
0.09725679892 0.202096431 0.00478284793
0.09821498966 0.201053004 0.00476505759
0.09917318996 0.198798232 0.00476409642
0.1001313791 0.198834843 0.00469157475
0.1010895794 0.196206209 0.00463907099
0.1020477701 0.19507788 0.00454821229
0.1030059688 0.19122261 0.0045584078
0.1039641596 0.187512039 0.00457731191
0.1049223583 0.189927885 0.00454345082
0.105880549 0.19651984 0.00458898282
0.1068387493 0.195902282 0.00449274627
0.107796948 0.195231967 0.00450961938
0.1087551388 0.193343949 0.00445762223
0.1097133375 0.191414335 0.00437856541
0.1106715282 0.193768551 0.00441160435
0.1116297285 0.194063748 0.00434247448
0.1125879177 0.190494114 0.00433630626
0.113546118 0.187977112 0.0043149232
0.1145043087 0.186697784 0.00426333379
0.1154625074 0.186021387 0.00425357274
0.1164206981 0.185628377 0.00413429912
0.1173788968 0.177618883 0.00407960651
0.1183370876 0.178377198 0.00410957041
0.1192952879 0.17895369 0.00408568883
0.120253477 0.178657378 0.00404334254
0.1212116773 0.181161513 0.00404720929
0.1221698665 0.176834884 0.00402882465
0.1231280668 0.171417213 0.00394119813
0.1240862575 0.172982733 0.00395232325
0.1250444562 0.164397236 0.00390464411
0.126002647 0.16930886 0.00386594213
0.1269608457 0.167911617 0.00381418755
0.1279190364 0.163246357 0.00380142135
0.1288772367 0.164701994 0.00381070805
0.1298354258 0.16163248 0.00384892557
0.1307936261 0.155565166 0.00378797855
0.1317518169 0.150300759 0.00378155304
0.1327100156 0.154652163 0.00377665393
0.1336682063 0.150853951 0.00374908863
0.134626405 0.150343103 0.00375655079
0.1355845958 0.145659674 0.003788515
0.1365427961 0.145308918 0.00375103454
0.1375009852 0.142015104 0.0036794634
0.1384591855 0.139262896 0.003675835
0.1394173842 0.141181706 0.0036623238
0.1403755749 0.137374714 0.00365911137
0.1413337752 0.136784738 0.00366414922
0.1422919644 0.134576566 0.00362968212
0.1432501647 0.136720665 0.00365533899
0.1442083554 0.132102422 0.00358569726
0.1451665541 0.133726063 0.00360431423
0.1461247449 0.138015131 0.00363617162
0.1470829436 0.132905462 0.00355768809
0.1480411343 0.134791138 0.00351980408
0.1489993346 0.135542427 0.00346248676
0.1499575238 0.132978203 0.00346996835
0.1509157241 0.141306688 0.00346228289
0.1518739148 0.134145555 0.00343353037
0.1528321135 0.1388719 0.00342331153
0.1537903042 0.142940036 0.0034023285
0.1547485029 0.141933343 0.00344280725
0.1557066937 0.143916215 0.00340821731
0.156664894 0.143086113 0.00342766812
0.1576230831 0.140596191 0.00336911264
0.1585812834 0.146781737 0.00339238879
0.1595394773 0.146048625 0.00339791782
0.1604976697 0.150117076 0.00340110111
0.161455862 0.153651682 0.00343249981
0.1624140703 0.156426675 0.00344563159
0.1633722626 0.156152323 0.00342832974
0.164330439 0.161342755 0.00344237571
0.1652886473 0.171609372 0.00348838834
0.1662468396 0.176078658 0.00356394395
0.1672050479 0.18440083 0.0035507304
0.1681632243 0.186600415 0.00356014225
0.1691214166 0.190010979 0.00360369064
0.1700796249 0.201164796 0.00364115164
0.1710378172 0.204181763 0.00368055174
0.1719960254 0.216113438 0.00368919728
0.1729542019 0.21900111 0.00378201178
0.1739123942 0.236285788 0.00383679388
0.1748706025 0.243475224 0.00387098549
0.1758287948 0.254794775 0.00393652033
0.1767869871 0.266539794 0.00398236922
0.1777451795 0.2737358 0.00401993296
0.1787033877 0.280881917 0.00403103122
0.17966158 0.303989339 0.00415569943
0.1806197565 0.309152197 0.00418988574
0.1815779647 0.320552173 0.00422833906
0.182536157 0.334060454 0.00429751928
0.1834943653 0.352296669 0.00437000098
0.1844525417 0.37254771 0.00447205426
0.1854107341 0.383212225 0.0045219169
0.1863689423 0.407052383 0.00459320372
0.1873271346 0.407706102 0.00460795868
0.188285327 0.418897156 0.00465248806
0.1892435193 0.428987124 0.00468079074
0.1902017276 0.446037422 0.00475695643
0.1911599199 0.465020746 0.00480246257
0.1921180963 0.476630601 0.00486227191
0.1930763046 0.487414835 0.00488445321
0.1940344969 0.488887148 0.00488783218
0.1949927051 0.501612948 0.00493712433
0.1959508816 0.51389836 0.00497259475
0.1969090739 0.528882502 0.00502100346
0.1978672822 0.535763943 0.00504775283
0.1988254745 0.541374744 0.00507069025
0.1997836827 0.557737214 0.00512490635
0.2007418592 0.564747219 0.0051205532
0.2017000515 0.568800204 0.00513510445
0.2026582597 0.584049479 0.00516066655
0.2036164521 0.582936547 0.00516661381
0.2045746444 0.5995491 0.00519298998
0.2055328367 0.608913504 0.00524095568
0.206491045 0.621107812 0.00526688833
0.2074492373 0.625206343 0.00525531066
0.2084074138 0.636987141 0.0052935927
0.209365622 0.641480541 0.00527980113
0.2103238143 0.651367502 0.00533359039
0.2112820226 0.661917318 0.00534099155
0.212240199 0.669860905 0.00537107207
0.2131983913 0.680974514 0.00539367432
0.2141565996 0.687551658 0.00540030898
0.2151147919 0.697552389 0.00543946261
0.2160729843 0.716492009 0.00544922222
0.2170311766 0.725715054 0.00550761181
0.2179893689 0.732770697 0.00550565464
0.2189475772 0.742089564 0.00552498004
0.2199057536 0.75471596 0.0055727183
0.2208639619 0.756382776 0.0055452496
0.2218221542 0.755233797 0.00554885386
0.2227803624 0.762443236 0.00553714649
0.2237385389 0.759265432 0.00552705367
0.2246967312 0.759898778 0.00553427802
0.2256549394 0.753200569 0.00545756371
0.2266131318 0.737291606 0.00542361252
0.2275713241 0.722224025 0.00533076461
0.2285295164 0.71260823 0.00532566226
0.2294877088 0.68993497 0.0052946793
0.230445917 0.677098252 0.00527221685
0.2314041094 0.66114168 0.00525641201
0.2323623017 0.642005867 0.00516014951
0.233320494 0.614912832 0.0050862448
0.2342787023 0.591133897 0.00501127199
0.2352368946 0.566684987 0.0049368138
0.236195071 0.540148785 0.00482917809
0.2371532793 0.520661163 0.00479578033
0.2381114716 0.486451647 0.00470575474
0.2390696799 0.473873901 0.00464971413
0.2400278563 0.449428734 0.00459172284
0.2409860486 0.425194494 0.0044922207
0.2419442569 0.403892585 0.00441359661
0.2429024492 0.38517468 0.00435723646
0.2438606416 0.366446571 0.00423764128
0.2448188339 0.348244696 0.00415291661
0.2457770262 0.325989957 0.00407335996
0.2467352345 0.307701264 0.00398275333
0.2476934109 0.29467917 0.00391334438
0.2486516191 0.278649522 0.00382601549
0.2496098115 0.266765769 0.0037584019
0.2505680197 0.257011057 0.00367814774
0.2515261961 0.245713117 0.00366039052
0.2524843885 0.237473954 0.00361837365
0.2534425967 0.218739731 0.00348923878
0.2544007891 0.205593386 0.00342069167
0.2553589655 0.195903042 0.0033374893
0.2563171737 0.187070215 0.00331589732
0.2572753661 0.17828787 0.00325497329
0.2582335743 0.168724402 0.00318837898
0.2591917507 0.15890695 0.00314059368
0.260149959 0.154178801 0.00314197376
0.2611081513 0.146674199 0.00315945782
0.2620663596 0.141032853 0.00309794353
0.2630245519 0.140243716 0.00311088591
0.2639827283 0.127475523 0.0030175554
0.2649409366 0.123215446 0.00301885282
0.2658991289 0.117625778 0.00297555488
0.2668573372 0.107575341 0.00285975055
0.2678155136 0.106526348 0.00287400349
0.2687737059 0.103014979 0.00288439677
0.2697319142 0.0943509936 0.00278880277
0.2706901065 0.0868313638 0.00276247951
0.2716482988 0.0841872041 0.00267753825
0.2726064912 0.0826479431 0.00273902249
0.2735646835 0.081125206 0.00267468475
0.2745228918 0.0765722718 0.00265535301
0.2754810682 0.0688203989 0.00260249542
0.2764392764 0.0686728402 0.00256067934
0.2773974688 0.0642936951 0.00256745839
0.278355677 0.0620060584 0.00246768434
0.2793138534 0.0572878634 0.00252225875
0.2802720458 0.0546807207 0.00248736572
0.281230254 0.0512671132 0.00247047867
0.2821884464 0.0526001164 0.00243904404
0.2831466228 0.0535161635 0.00239672095
0.284104831 0.0503047939 0.0024285998
0.2850630234 0.0469730314 0.00247341439
0.2860212316 0.0446102217 0.00240711267
0.286979408 0.0404858079 0.00242980366
0.2879376163 0.0385179539 0.00236377167
0.2888958086 0.0389830854 0.00242506212
0.2898540169 0.0373932825 0.00238372692
0.2908121933 0.0367616743 0.00238140331
0.2917703856 0.0398108271 0.00240371865
0.2927285939 0.0342621819 0.0023472741
0.2936867862 0.033301595 0.00237959545
0.2946449945 0.033259829 0.00231301492
0.2956031709 0.0337107047 0.00238217188
0.2965613632 0.0355147376 0.0023890774
0.2975195715 0.0341053372 0.00238411805
0.2984777638 0.0288319959 0.00231981894
0.2994359561 0.031897268 0.00236023642
0.3003941485 0.0302086719 0.00232930839
0.3013523408 0.0300359211 0.00231704687
0.3023105491 0.0273451321 0.00233295291
0.3032687255 0.0332120811 0.00235416865
0.3042269337 0.0268434503 0.00234653549
0.3051851261 0.0303500303 0.00239059266
0.3061433343 0.0257331491 0.00233659902
0.3071015107 0.0284096234 0.00240652258
0.3080597031 0.0240760162 0.00236568727
0.3090179113 0.0249128757 0.00235963415
0.3099761036 0.0222237857 0.00233171577
0.3109342801 0.0240523375 0.00232897805
0.3118924883 0.0255780956 0.00246694256
0.3128506806 0.0234200402 0.00237653036
0.3138088889 0.0245926647 0.00241907709
0.3147670653 0.0231897675 0.00242703338
0.3157252736 0.0223286418 0.00244213063
0.3166834659 0.0243284081 0.00244068475
0.3176416582 0.0229012038 0.00240047638
0.3185998665 0.0231603062 0.00249314428
0.3195580588 0.018716684 0.00244919632
0.3205162193 0.0220994824 0.00247256849
0.3214744276 0.0229155327 0.00247581062
0.3224326199 0.0266114283 0.00243137096
0.3233908282 0.0221547654 0.00245824456
0.3243490205 0.021978081 0.00247694442
0.3253072287 0.0264675315 0.00252017294
0.3262654211 0.0226664453 0.00248564094
0.3272236293 0.0257776528 0.00250596703
0.3281818217 0.0250616894 0.00249727132
0.3291399822 0.0246722925 0.00249179313
0.3300981904 0.021333783 0.00250395426
0.3310563828 0.0215559987 0.00250583076
0.332014591 0.0207158856 0.00252200052
0.3329727833 0.0207036564 0.00267084775
0.3339309916 0.0224005682 0.0027508377
0.3348891839 0.0212150514 0.00279699027
0.3358473763 0.0243168873 0.00283233401
0.3368055527 0.0252096138 0.00293608464
0.337763745 0.0254346596 0.00294571821
0.3387219374 0.0261526197 0.00303285011
0.3396801456 0.0284548261 0.00306056425
0.3406383379 0.0246392394 0.00315842474
0.3415965462 0.0176139219 0.00314741386
0.3425547385 0.0186040162 0.00314087895
0.3435129468 0.0184271013 0.00316880643
0.3444711073 0.0188191314 0.00332165508
0.3454292996 0.0233199329 0.00344436664
0.3463875079 0.021577718 0.003372304
0.3473457002 0.0205559618 0.00345199368
0.3483039084 0.0201516662 0.00356148649
0.3492621008 0.0230599854 0.00359427345
0.350220309 0.0185797598 0.00359393692
0.3511785014 0.0214541847 0.00354444845
0.3521366619 0.0240787226 0.0036769503
0.3530948701 0.0180680631 0.00352637304
0.3540530625 0.0173319688 0.00372886768
0.3550112548 0.0177454769 0.00368486345
0.355969463 0.0154186812 0.00381207714
0.3569276554 0.0179504497 0.00408475445
0.3578858636 0.0198407776 0.00401039
0.358844056 0.0164936163 0.00401288866
0.3598022642 0.0175234849 0.0038966127
0.3607604247 0.01519156 0.00412571215
0.3617186171 0.0153808376 0.00422330872
0.3626768253 0.0176141227 0.00406567959
0.3636350176 0.0170647501 0.00423277269
0.3645932259 0.0137919858 0.00422403817
0.3655514182 0.0124569735 0.00431654556
0.3665096265 0.0131870741 0.00428578108
0.3674678188 0.0168751419 0.00429474913
0.3684259793 0.0186769006 0.00432098289
0.3693841876 0.00945600882 0.00435214991
0.3703423799 0.0169725399 0.00466440439
0.3713005881 0.0200399265 0.00470252219
0.3722587805 0.0113879214 0.00475236288
0.3732169728 0.0144934355 0.00485408586
0.3741751811 0.0128401708 0.00479370641
0.3751333734 0.0155947954 0.00503813741
0.3760915339 0.021785531 0.00512914595
0.3770497422 0.0214340958 0.00508817602
0.3780079345 0.0207471183 0.00508006942
0.3789661427 0.0219425649 0.00535366888
0.3799243351 0.00539743576 0.00559480223
0.3808825433 0.0205326211 0.00564866918
0.3818407357 0.0245797353 0.00569765226
0.3827989439 0.015567111 0.00538238337
0.3837571362 0.0115043135 0.00553777659
0.3847152968 0.0135411945 0.00647735014
0.385673505 0.0096991851 0.00665171844
0.3866316973 0.015035495 0.00629966413
0.3875899056 0.0219083802 0.00654712391
0.3885480979 0.0162194629 0.00691768579
0.3895063062 0.00925346701 0.00763216668
0.3904644985 0.0186011148 0.00726528827
0.3914226908 0.0136567121 0.00781824976
0.3923808513 0.00580366724 0.00752191023
0.3933390596 0.0102776898 0.00759037048
0.3942972519 0.0153046686 0.00829585648
0.3952554602 0.00669590165 0.00901253024
0.3962136525 0.0111792559 0.00870371714
0.3981300531 0.0211266371 0.0113638759
0.4000464219 0.0204328119 0.011827998
0.4010046142 0.0129887177 0.0143425255
0.4019628224 0.0277345495 0.0153072617
0.4029210148 0.0348442164 0.0168289049
0.403879223 0.0106657764 0.0219779197
0.4048374154 0.00938984376 0.0189609681
0.4057956236 0.000782474009 0.0200996256

