# s I dI
0.006228268002 15.0159512 0.664165577
0.007186463043 11.1996999 0.356851513
0.008144657924 9.99975884 0.225688708
0.009102852805 9.33424753 0.138488202
0.01006104769 8.46918895 0.0851429765
0.01101924257 7.27816641 0.0651348718
0.01197743872 6.14253097 0.0529034216
0.0129356336 5.29547353 0.0463376803
0.01389382849 4.52065859 0.0396956818
0.01485202337 3.87530643 0.0355842888
0.01581021825 3.29452707 0.0316801669
0.01676841361 2.78959003 0.0279114968
0.01772660753 2.38181272 0.0257196389
0.01868480305 2.05212489 0.0226950519
0.01964299857 1.74929755 0.0206862186
0.0206011925 1.52295924 0.0188649458
0.02155938801 1.28422232 0.0172609284
0.02251758194 1.10002434 0.0158263077
0.02347578064 0.955997226 0.0140896689
0.02443397457 0.832910928 0.0131718211
0.02539217009 0.715302188 0.0120677581
0.02635036401 0.630315838 0.0111408484
0.02730855953 0.537735985 0.010506355
0.02826675505 0.456902859 0.00969203528
0.02922494897 0.389115443 0.00932846594
0.03018314449 0.3484192 0.00848148603
0.03114133842 0.303688982 0.00802881771
0.03209953394 0.266140065 0.00746336031
0.03305772945 0.213755103 0.00703546001
0.03401592338 0.186848294 0.00696971193
0.0349741189 0.170277095 0.00651884022
0.03593231442 0.153580309 0.00600708918
0.03689050834 0.13791299 0.00574871989
0.03784870386 0.109313466 0.00550949442
0.03880690097 0.0919413722 0.00560855733
0.03976509649 0.082945629 0.00513043941
0.04072329042 0.0705279446 0.00494716821
0.04168148593 0.0598499803 0.00490223356
0.04263967986 0.0612367528 0.00462601071
0.04359787538 0.0445091239 0.00460032898
0.0445560709 0.03997028 0.00433957592
0.04551426482 0.0344366844 0.00426825609
0.04647246034 0.0398391987 0.00396228284
0.04743065427 0.0333208734 0.00406357
0.04838884978 0.0213793634 0.00403798632
0.0493470453 0.0223611419 0.00398324831
0.05030523923 0.023561663 0.00391776729
0.05126343475 0.0213166974 0.00369445118
0.05222163027 0.0212960684 0.00375341594
0.05317982419 0.0144958562 0.00373094828
0.05413801971 0.0125811673 0.00361361509
0.05509621364 0.0125291165 0.00367317118
0.05605440915 0.0154499696 0.00364115904
0.05701260467 0.0189421027 0.00350780215
0.0579707986 0.0169312885 0.00352083876
0.05892899412 0.0168251952 0.00357373282
0.05988718804 0.0134293121 0.00355631247
0.06084538356 0.0152457489 0.0034337495
0.06180358385 0.0148357813 0.00364210894
0.06276177778 0.0154602776 0.0035121521
0.0637199733 0.0125014264 0.00347336616
0.06467816882 0.0160422981 0.00341728429
0.06563636274 0.0101337356 0.00354519843
0.06659455826 0.00992897237 0.00353825797
0.06755275219 0.0152258955 0.00329420418
0.0685109477 0.0145684438 0.0033855686
0.06946914322 0.012901788 0.0032078784
0.07042733715 0.0119945856 0.00335973235
0.07138553267 0.00642812355 0.00349958659
0.07234372659 0.00948168468 0.00328893753
0.07330192211 0.0103119998 0.00344229292
0.07426011763 0.0138898411 0.00326677652
0.07521831156 0.00967951039 0.0032507862
0.07617650707 0.00998504752 0.0032878122
0.07713470259 0.0134563013 0.00310475205
0.07809289652 0.0153087733 0.00296462839
0.07905109204 0.0154675262 0.00305824942
0.08000929074 0.0166453605 0.00294288204
0.08096748148 0.0175710706 0.0028924552
0.08192568177 0.015321176 0.00283257128
0.08288387093 0.0150208532 0.00300179348
0.08384207122 0.0168297185 0.00278016375
0.08480026037 0.0175390993 0.0027616455
0.08575846066 0.0212372606 0.002776021
0.08671665141 0.018089027 0.00280770478
0.08767485011 0.0160400274 0.00281950128
0.08863304085 0.0200539577 0.00267927354
0.08959124114 0.01463476 0.00285010586
0.09054943029 0.019604098 0.00275967556
0.09150763059 0.0218276371 0.00275458718
0.09246581974 0.0223697982 0.00270106574
0.09342402003 0.0231953495 0.00267577346
0.09438221077 0.0203148172 0.00274950196
0.09534040948 0.0230073086 0.00264489598
0.09629860022 0.0219995819 0.00264730205
0.09725679892 0.0249335944 0.00258241636
0.09821498966 0.0241824343 0.00257831558
0.09917318996 0.0225719009 0.0026353661
0.1001313791 0.0255310369 0.0025935714
0.1010895794 0.0248075507 0.00253329214
0.1020477701 0.0290567148 0.0024537136
0.1030059688 0.0256076327 0.0025521419
0.1039641596 0.0200707797 0.00264418995
0.1049223583 0.0213613981 0.00260249646
0.105880549 0.0227273872 0.00257780794
0.1068387493 0.0265123821 0.00250582073
0.107796948 0.0228105419 0.0025217708
0.1087551388 0.0242110972 0.00249352868
0.1097133375 0.027114435 0.00245164436
0.1106715282 0.0261862955 0.00245003344
0.1116297285 0.0288806187 0.00241874255
0.1125879177 0.028165236 0.00244593101
0.113546118 0.0264301049 0.00247110002
0.1145043087 0.0260653702 0.00244542808
0.1154625074 0.0266769444 0.00241703506
0.1164206981 0.0329107727 0.00232330799
0.1173788968 0.0298105846 0.00230816139
0.1183370876 0.0274352885 0.00238916994
0.1192952879 0.0294262873 0.00236164014
0.120253477 0.0296663933 0.00229571532
0.1212116773 0.0292148237 0.00231711523
0.1221698665 0.0295218119 0.00233747226
0.1231280668 0.027470453 0.00230769172
0.1240862575 0.0268185205 0.00229722752
0.1250444562 0.026535335 0.00236400707
0.126002647 0.0293019334 0.00227583627
0.1269608457 0.0339229638 0.00220986554
0.1279190364 0.0272628131 0.00228456909
0.1288772367 0.0287858818 0.00226279388
0.1298354258 0.0273759552 0.00232281443
0.1307936261 0.0297405845 0.00231451167
0.1317518169 0.0261247571 0.00231838901
0.1327100156 0.0285057696 0.00228457066
0.1336682063 0.0284258761 0.00225327997
0.134626405 0.0262696038 0.0022820639
0.1355845958 0.0235446272 0.00238834878
0.1365427961 0.0272405451 0.00234206227
0.1375009852 0.0289717763 0.00230400406
0.1384591855 0.0274770413 0.00229968381
0.1394173842 0.0269663652 0.00228017137
0.1403755749 0.0258780457 0.0023068963
0.1413337752 0.0261112861 0.00232945978
0.1422919644 0.0257738031 0.00232651718
0.1432501647 0.0256582152 0.00230426108
0.1442083554 0.0253229939 0.00230315073
0.1451665541 0.0254544657 0.00227963763
0.1461247449 0.0249311648 0.00227693682
0.1470829436 0.0255843343 0.00224949677
0.1480411343 0.0269941683 0.00221470089
0.1489993346 0.0256123883 0.00216563725
0.1499575238 0.0229628683 0.00220693365
0.1509157241 0.0258843618 0.00213177549
0.1518739148 0.020942797 0.00217623441
0.1528321135 0.024598016 0.00212241452
0.1537903042 0.0250243985 0.00206593996
0.1547485029 0.0229235716 0.00213524966
0.1557066937 0.0229414032 0.00209517873
0.156664894 0.0204311794 0.00212495351
0.1576230831 0.0242799056 0.00210162338
0.1585812834 0.023573726 0.00208009316
0.1595394773 0.024598968 0.00209399312
0.1604976697 0.0242889408 0.00209533709
0.161455862 0.0252412519 0.00208988622
0.1624140703 0.0234084575 0.00209645219
0.1633722626 0.0253509744 0.0020956893
0.164330439 0.0299045903 0.0020759168
0.1652886473 0.0279153818 0.00204305529
0.1662468396 0.0294031933 0.00211850834
0.1672050479 0.0350369446 0.00205578471
0.1681632243 0.03690858 0.00205049653
0.1691214166 0.0373472119 0.00210485027
0.1700796249 0.0393524953 0.00207500067
0.1710378172 0.0410540308 0.00210136915
0.1719960254 0.0460676958 0.00204356809
0.1729542019 0.0429145461 0.00215736992
0.1739123942 0.0490655945 0.00209897471
0.1748706025 0.0503902055 0.00211517477
0.1758287948 0.0516557774 0.0020991125
0.1767869871 0.05411814 0.00211452551
0.1777451795 0.0601365999 0.00211562524
0.1787033877 0.0642929712 0.00211825185
0.17966158 0.0684899528 0.00212434926
0.1806197565 0.0724926498 0.00216970917
0.1815779647 0.0794084812 0.00219787628
0.182536157 0.0834068371 0.00219355995
0.1834943653 0.0849549814 0.00220060761
0.1844525417 0.0895695555 0.0022156364
0.1854107341 0.0943864194 0.00223606675
0.1863689423 0.102447543 0.00223430175
0.1873271346 0.104385697 0.00224966133
0.188285327 0.107745392 0.00230157304
0.1892435193 0.118123008 0.00230759456
0.1902017276 0.120758486 0.00232276735
0.1911599199 0.129239015 0.00232061159
0.1921180963 0.138302995 0.00236282129
0.1930763046 0.141927115 0.00238018906
0.1940344969 0.146134641 0.00239177743
0.1949927051 0.150690174 0.00243036504
0.1959508816 0.157442704 0.0024385207
0.1969090739 0.167392566 0.00245066143
0.1978672822 0.168147532 0.00249936847
0.1988254745 0.174945927 0.00251345534
0.1997836827 0.181513976 0.00256199648
0.2007418592 0.187865705 0.00253477834
0.2017000515 0.195525505 0.00256144157
0.2026582597 0.198316276 0.00257133199
0.2036164521 0.20111159 0.00257803669
0.2045746444 0.210760156 0.00257879789
0.2055328367 0.216162949 0.00261228982
0.206491045 0.217022636 0.00260879272
0.2074492373 0.227382349 0.0026115205
0.2084074138 0.235148651 0.00263190382
0.209365622 0.23552216 0.0026265356
0.2103238143 0.240294557 0.00266082132
0.2112820226 0.242398355 0.00266250571
0.212240199 0.245680345 0.00266613842
0.2131983913 0.252686323 0.00267720269
0.2141565996 0.250007356 0.00267672139
0.2151147919 0.256833868 0.00267947016
0.2160729843 0.259417 0.00264931926
0.2170311766 0.25812146 0.0026695969
0.2179893689 0.258408731 0.00266421475
0.2189475772 0.257548845 0.00265178999
0.2199057536 0.257181565 0.00265624936
0.2208639619 0.250386366 0.0026353113
0.2218221542 0.254405767 0.00262822033
0.2227803624 0.251727371 0.00261321759
0.2237385389 0.250888951 0.00260618782
0.2246967312 0.245827135 0.00261606857
0.2256549394 0.244768517 0.00254748372
0.2266131318 0.241341179 0.00254843509
0.2275713241 0.234435338 0.00250950067
0.2285295164 0.231520913 0.00252257219
0.2294877088 0.227674853 0.00253018975
0.230445917 0.217899859 0.00251926709
0.2314041094 0.216338646 0.0025263964
0.2323623017 0.209017485 0.00246977193
0.233320494 0.206109753 0.00244380084
0.2342787023 0.196774089 0.0024733716
0.2352368946 0.188370164 0.00245720395
0.236195071 0.183360143 0.00239479149
0.2371532793 0.178417422 0.00240849605
0.2381114716 0.175332381 0.00240748832
0.2390696799 0.16576652 0.00237747243
0.2400278563 0.157263877 0.00238373791
0.2409860486 0.152700964 0.00235884791
0.2419442569 0.141379494 0.00234969123
0.2429024492 0.136707851 0.00232682588
0.2438606416 0.131237606 0.00229496563
0.2448188339 0.130598934 0.0022481733
0.2457770262 0.117995618 0.00228463452
0.2467352345 0.112948109 0.00226708825
0.2476934109 0.109631915 0.00223431945
0.2486516191 0.101398409 0.00222059028
0.2496098115 0.0976535098 0.00215439532
0.2505680197 0.0965693299 0.00213051001
0.2515261961 0.0867378693 0.00214802345
0.2524843885 0.0843761726 0.00214163403
0.2534425967 0.0788082667 0.00210085358
0.2544007891 0.0758892947 0.00207695912
0.2553589655 0.069963023 0.00204599246
0.2563171737 0.0671841703 0.00206648904
0.2572753661 0.0619503817 0.00204020316
0.2582335743 0.0582019836 0.00202223412
0.2591917507 0.0537739148 0.00201100791
0.260149959 0.0512366138 0.0020244467
0.2611081513 0.0471337194 0.00206861501
0.2620663596 0.0435758976 0.0020128886
0.2630245519 0.0411468993 0.00199882832
0.2639827283 0.0401727886 0.00199355592
0.2649409366 0.0351161764 0.0020314149
0.2658991289 0.0361634752 0.00200575383
0.2668573372 0.0349129415 0.00197206326
0.2678155136 0.0347276188 0.00197951518
0.2687737059 0.0291466537 0.00200998257
0.2697319142 0.026302219 0.00197365607
0.2706901065 0.0229622406 0.00200252603
0.2716482988 0.0256848093 0.00194379447
0.2726064912 0.0204910685 0.00200688017
0.2735646835 0.0233570324 0.00195758421
0.2745228918 0.0199312702 0.00196379171
0.2754810682 0.0186999416 0.0019862928
0.2764392764 0.01716228 0.00192108434
0.2773974688 0.0157632556 0.00196941022
0.278355677 0.0171366285 0.00187940031
0.2793138534 0.0141386117 0.00199692285
0.2802720458 0.0117593365 0.00196712432
0.281230254 0.00977090952 0.00198753893
0.2821884464 0.0157282927 0.00193811651
0.2831466228 0.0171008548 0.00188619668
0.284104831 0.0147353727 0.0019472302
0.2850630234 0.00865036595 0.00202764868
0.2860212316 0.011495663 0.00198599068
0.286979408 0.00816979288 0.00205492336
0.2879376163 0.0090000112 0.0020085991
0.2888958086 0.00704519718 0.00205278222
0.2898540169 0.00801315548 0.002039414
0.2908121933 0.00867295364 0.00203837943
0.2917703856 0.00972588282 0.0020186149
0.2927285939 0.00722348819 0.00202462152
0.2936867862 0.00696565272 0.00206628152
0.2946449945 0.00846612025 0.00200194527
0.2956031709 0.00686431053 0.00205587893
0.2965613632 0.00847791916 0.00204775064
0.2975195715 0.00913924904 0.00206602624
0.2984777638 0.00939195935 0.00207075269
0.2994359561 0.00720285356 0.00205678169
0.3003941485 0.00893639362 0.00204491595
0.3013523408 0.00865306629 0.00203762652
0.3023105491 0.00674367301 0.00208308336
0.3032687255 0.0101468248 0.00202180455
0.3042269337 0.00873759869 0.00212392297
0.3051851261 0.00883470679 0.00210166173
0.3061433343 0.00700123407 0.00211498403
0.3071015107 0.00682625949 0.00213971724
0.3080597031 0.0052598446 0.00215678347
0.3090179113 0.00851588161 0.00215791296
0.3099761036 0.00751577083 0.0021568717
0.3109342801 0.0064432588 0.0021168513
0.3118924883 0.00487557092 0.00223465023
0.3128506806 0.00528043272 0.00217291967
0.3138088889 0.00611526048 0.00219941381
0.3147670653 0.00478231945 0.00222358431
0.3157252736 0.00513920451 0.00226475637
0.3166834659 0.00754061224 0.00222906253
0.3176416582 0.00739186735 0.00221632646
0.3185998665 0.00482216998 0.00229261185
0.3195580588 0.00146522963 0.00230045771
0.3205162193 0.00325305554 0.00227392645
0.3214744276 0.00608695754 0.00227792429
0.3224326199 0.00911117869 0.00217645265
0.3233908282 0.00749751522 0.00227520522
0.3243490205 0.00519036459 0.00228928617
0.3253072287 0.00701957959 0.00225735997
0.3262654211 0.00679708242 0.00228975276
0.3272236293 0.0069742359 0.00224849105
0.3281818217 0.0091957105 0.00226394191
0.3291399822 0.00631978215 0.0022449027
0.3300981904 0.00672926477 0.00232434902
0.3310563828 0.00530087356 0.00231061657
0.332014591 0.00600133255 0.00234417312
0.3329727833 0.00360037022 0.0024766793
0.3339309916 0.00441330851 0.00252345413
0.3348891839 0.00555883972 0.00259810523
0.3358473763 0.00853670329 0.00258382401
0.3368055527 0.00694306196 0.00265495694
0.337763745 0.00746259043 0.00265057964
0.3387219374 0.00859506328 0.00273511734
0.3396801456 0.0070236419 0.0026726535
0.3406383379 0.00683677782 0.0028779488
0.3415965462 0.00207986119 0.00297389197
0.3425547385 0.00420249127 0.00294735664
0.3435129468 0.00401486703 0.00297265269
0.3444711073 0.00260835461 0.00311352741
0.3454292996 0.00372219702 0.00313992374
0.3463875079 0.00618704422 0.00310959679
0.3473457002 0.00547493596 0.00321082682
0.3483039084 0.00362392138 0.00332310387
0.3492621008 0.00517444444 0.00327952755
0.350220309 0.00380848244 0.00337665458
0.3511785014 0.00795850083 0.00326882233
0.3521366619 0.00690346757 0.00332141513
0.3530948701 0.00700061542 0.0033133712
0.3540530625 0.0042828265 0.00353910637
0.3550112548 0.00642480907 0.00348639006
0.355969463 0.00154874277 0.00363833214
0.3578858636 0.00343248058 0.00373600121
0.358844056 0.000388914547 0.0037928841
0.3598022642 0.00653415389 0.0036917731
0.3607604247 0.00348855471 0.00398888031
0.3617186171 0.00144945702 0.00405761583
0.3626768253 0.00464052687 0.00382467761
0.3636350176 0.00328083888 0.00401010487
0.3645932259 0.00232530906 0.00408742252
0.3665096265 0.00046705088 0.00413036479
0.3674678188 0.00760458497 0.00409551615
0.3684259793 0.00642269148 0.00402119304
0.3693841876 0.000910348207 0.00432142068
0.3703423799 0.00120822054 0.00438394579
0.3713005881 0.0048417659 0.00434571141
0.3732169728 0.00224328506 0.0046725804
0.3741751811 0.00400603099 0.00468169923
0.3751333734 0.000318103874 0.00477589784
0.3760915339 0.00426483809 0.00465615873
0.3770497422 0.00450034201 0.00458876828
0.3780079345 0.0103582867 0.00469664988
0.3789661427 0.0045197169 0.00483222329
0.3808825433 0.00548844251 0.00521015516
0.3818407357 0.0082973155 0.00508761246
0.3827989439 0.00618483756 0.0050905636
0.3837571362 0.00312789282 0.00539973271
0.3866316973 0.00524464906 0.00605880436
0.3875899056 0.00818416767 0.00597472777
0.3885480979 0.00355192784 0.00660282094
0.3904644985 0.00594806532 0.00681682271
0.3923808513 0.00156765246 0.00773081819
0.3933390596 0.00404457711 0.00753378951
0.3962136525 0.00985384163 0.00875730948
0.3990882614 0.00299484749 0.0111103001
0.4000464219 0.00511713013 0.0106933011
0.4010046142 0.00273087401 0.0141359769
0.4019628224 0.0188283573 0.0137281059
0.4029210148 0.0332643725 0.0141755993
0.4048374154 0.00864900102 0.0188234031
0.4057956236 0.00938318545 0.0226256184

