# s I dI
0.008186765547 8.32177497 0.111092811
0.009278334181 6.78047854 0.0685564999
0.01036990266 5.37220368 0.0424734411
0.01146147129 4.48353854 0.0305027923
0.01255303992 3.78414031 0.0253635804
0.01364460967 3.30289679 0.0213448833
0.01473617814 2.85237165 0.0192109916
0.01582774678 2.49476727 0.0167391837
0.01691931477 2.19333192 0.015283491
0.01801088373 1.95576231 0.0142116118
0.01910245268 1.72648774 0.0123544889
0.02019402163 1.54206016 0.0116925961
0.02128558899 1.38586068 0.0106490984
0.02237715794 1.25335373 0.0100270967
0.02346872689 1.12433318 0.00922479833
0.02456029585 1.04430392 0.00860663589
0.02565186321 0.942091326 0.00818608379
0.02674343534 0.856514477 0.00747992926
0.02783500429 0.783951764 0.00716518447
0.02892657165 0.725479063 0.00668328547
0.03001814061 0.664097477 0.00635410308
0.03110970956 0.604629398 0.00604683279
0.03220127851 0.561345409 0.00559705273
0.03329284587 0.522774315 0.00542346714
0.03438441482 0.479232271 0.00505423942
0.03547598377 0.440144455 0.00483053982
0.03656755272 0.402883301 0.00463735292
0.03765912009 0.373086684 0.00432480038
0.03875068904 0.345516481 0.00419959084
0.03984225799 0.322913842 0.00394765033
0.04093382694 0.292089934 0.00382123104
0.0420253943 0.274478561 0.00366484977
0.04311696325 0.252081911 0.00346539397
0.0442085322 0.233140298 0.00336036247
0.04530010116 0.217929003 0.00317958501
0.04639167011 0.20366777 0.00308204137
0.04748323747 0.193041798 0.00297497415
0.04857480642 0.18108027 0.00288256031
0.04966637537 0.172320635 0.0028073139
0.05075794432 0.153723041 0.00264536023
0.05184951168 0.148109005 0.002610801
0.05294108541 0.139390473 0.00250439683
0.05403265436 0.129613448 0.00243429315
0.05512422331 0.124140199 0.00235853837
0.05621579067 0.116799324 0.00225765158
0.05730735963 0.111766586 0.00223459173
0.05839892858 0.102154951 0.00214034464
0.05949049753 0.0971226592 0.00209086168
0.06058206489 0.0944282354 0.00202933225
0.06167363384 0.0914365249 0.0020071627
0.06276520279 0.08634724 0.00198611219
0.06385677175 0.0824500546 0.00192926585
0.0649483407 0.0793418354 0.00194534567
0.06603990806 0.0749680887 0.00194142966
0.06713147701 0.0731809156 0.00190922155
0.06822304596 0.0716177438 0.00190691722
0.06931461491 0.0700229455 0.00183962534
0.07040618227 0.0641037595 0.00187421726
0.07149775123 0.064016159 0.00184424746
0.07258932018 0.0626984297 0.00183160008
0.07368088913 0.0602522741 0.00181229893
0.07477245649 0.061536088 0.00177217329
0.07586402544 0.0580792451 0.00180571586
0.07695559439 0.0570303409 0.0017540876
0.07804716335 0.0554413675 0.00174707079
0.07913873071 0.0570492407 0.00175497686
0.08023030443 0.0573463214 0.00172189139
0.08132187338 0.0529901387 0.00171126963
0.08241344234 0.0502684444 0.00168406852
0.08350501129 0.0521682651 0.00170636032
0.08459657865 0.0555196307 0.00169302472
0.0856881476 0.0534501917 0.0016496721
0.08677971655 0.0544254469 0.00161884304
0.0878712855 0.0556494511 0.00158287005
0.08896285286 0.0543677662 0.00158860958
0.09005442182 0.0518526494 0.00154432434
0.09114599077 0.0542563918 0.00153267338
0.09223755972 0.0519758564 0.00152709717
0.09332912708 0.0532563559 0.00148913721
0.09442069603 0.0507372222 0.00149232827
0.09551226498 0.0571877723 0.00148323156
0.09660383394 0.0550734939 0.00147840956
0.09769540289 0.05362269 0.00145558872
0.09878697025 0.0526224162 0.00144342718
0.0998785392 0.0553200197 0.00144290241
0.1009701082 0.0546067286 0.00141773084
0.1020616771 0.0533396819 0.00141387186
0.1031532445 0.0523603543 0.00140316605
0.1042448134 0.0552902938 0.00139675763
0.1053363824 0.0546929299 0.00138256483
0.1064279513 0.0538752625 0.00135401875
0.1075195187 0.0531156039 0.00135757151
0.1086110876 0.0524250044 0.00135942746
0.1097026566 0.0523272224 0.00134713519
0.1107942255 0.0528031581 0.00132651884
0.1118857929 0.0533616068 0.00131492045
0.1129773618 0.0514170015 0.00131036027
0.1140689308 0.0524539698 0.00130400097
0.1151604998 0.0497010941 0.00129681567
0.1162520687 0.0500871381 0.0012880583
0.1173436361 0.0497566463 0.0012767182
0.118435205 0.0496841488 0.00126479177
0.119526774 0.0477770999 0.00125626566
0.1206183429 0.0472485321 0.0012402041
0.1217099103 0.0467084845 0.00122050998
0.1228014792 0.0445434668 0.00122670492
0.1238930482 0.0458244798 0.00121420223
0.1249846171 0.0447233417 0.00119684568
0.1260761845 0.0441224079 0.00119993418
0.1271677534 0.0426524323 0.0011767113
0.1282593224 0.0440418471 0.00117667708
0.1293508913 0.042306986 0.00117110268
0.1304424587 0.0426078537 0.00115335319
0.1315340277 0.0410434459 0.00114551624
0.1326255966 0.0379338137 0.0011325279
0.1337171656 0.0390575368 0.00113004299
0.1348087345 0.0390899282 0.00111183669
0.1359003019 0.0380663263 0.00110491517
0.1369918708 0.036694658 0.00111919528
0.1380834398 0.0367550322 0.00108650133
0.1391750087 0.0354088766 0.00109717601
0.1402665856 0.0334984272 0.00108160202
0.1413581546 0.0362047426 0.00106646304
0.1424497235 0.035620059 0.00107428016
0.1435412925 0.0333435726 0.00105007391
0.1446328599 0.0341738583 0.00105332129
0.1457244288 0.0336800977 0.00105257174
0.1468159978 0.0342175885 0.00105503399
0.1479075667 0.0343848612 0.001061454
0.1489991341 0.0339912459 0.00106454297
0.150090703 0.0346302761 0.00107707843
0.151182272 0.0343445739 0.00106091858
0.1522738409 0.0337175213 0.00107018286
0.1533654099 0.0339174126 0.00106789706
0.1544569772 0.0358643767 0.00108465452
0.1555485462 0.0362681436 0.00109423871
0.1566401151 0.0366523868 0.00107834114
0.1577316841 0.0376230213 0.00109206105
0.1588232515 0.0362328994 0.00108245845
0.1599148284 0.0369264236 0.00109831537
0.1610063766 0.0368285924 0.00110276731
0.1620979567 0.038504078 0.00109177807
0.1631895209 0.0391582089 0.00110944362
0.164281101 0.0405270382 0.00109444797
0.1653726493 0.0418162832 0.00111388176
0.1664642293 0.0450430038 0.00111902437
0.1675557935 0.0445651431 0.00111361464
0.1686473736 0.0461539381 0.00111021618
0.1697389219 0.046497708 0.00108307761
0.170830502 0.0491732457 0.00109421707
0.1719220661 0.0510918451 0.00108510907
0.1730136462 0.0506158546 0.00108460773
0.1741052104 0.0522769869 0.00109546908
0.1751967746 0.0543674226 0.00108300195
0.1762883547 0.0556982538 0.00110620968
0.1773799189 0.0573046803 0.00109211505
0.178471499 0.0595915783 0.00109519017
0.1795630472 0.0609016365 0.0011155823
0.1806546273 0.0625863244 0.00110084027
0.1817461915 0.0650122694 0.00110517962
0.1828377716 0.066441474 0.00110815622
0.1839293358 0.066924969 0.00111518253
0.1850208999 0.0693943657 0.00111218164
0.1861124641 0.0718323881 0.00111547821
0.1872040442 0.0754348204 0.00112027471
0.1882956084 0.0764942924 0.00111116511
0.1893871885 0.0789480269 0.00111305424
0.1904787367 0.081175988 0.00112658751
0.1915703168 0.0818610372 0.0011291702
0.192661881 0.0832976724 0.00113857978
0.1937534611 0.0854512372 0.00113250362
0.1948450094 0.0870307651 0.00114431467
0.1959365895 0.0892197392 0.00113390043
0.1970281536 0.0913358408 0.00114555904
0.1981197337 0.0937347938 0.00115504658
0.199211282 0.0912889331 0.00113871279
0.2003028621 0.0952706243 0.00115062168
0.2013944263 0.0955087599 0.00113699829
0.2024860063 0.097243666 0.00114404748
0.2035775705 0.0984397351 0.00113696212
0.2046691347 0.0996251454 0.00114400848
0.2057606989 0.101493382 0.00114592747
0.206852279 0.100231779 0.00113499211
0.2079438432 0.100443111 0.00114197603
0.2090354232 0.100940434 0.00113396419
0.2101269715 0.101137003 0.00113605609
0.2112185516 0.101300002 0.00113736254
0.2123101158 0.102984735 0.00112272072
0.2134016959 0.102266202 0.00113142057
0.2144932441 0.102367499 0.0011248552
0.2155848242 0.10197008 0.00112457339
0.2166763884 0.101301691 0.00110958758
0.2177679685 0.100656561 0.00110762129
0.2188595168 0.100953543 0.00110570906
0.2199510968 0.0991304143 0.00109348939
0.221042661 0.0986981192 0.00108984733
0.2221342411 0.0973669355 0.00107952682
0.2232258053 0.0963512494 0.00107940239
0.2243173695 0.0927128981 0.00106215311
0.2254089336 0.0921114533 0.00105461391
0.2265005137 0.0914229472 0.00104883274
0.2275920779 0.0887659275 0.00103906351
0.228683658 0.0871083729 0.00103468743
0.2297752063 0.0846295128 0.00102015814
0.2308667864 0.0830458206 0.00100369987
0.2319583505 0.0812956356 0.00100369202
0.2330499306 0.0802473597 0.000996561167
0.2341414789 0.0773703579 0.000986811198
0.235233059 0.0753850381 0.000968151535
0.2363246232 0.0732857193 0.000958894387
0.2374162033 0.0715331328 0.000957269815
0.2385077515 0.0690717898 0.000939872396
0.2395993316 0.0665199197 0.000932555369
0.2406908958 0.0635758743 0.000923427676
0.2417824759 0.0620286065 0.000914619654
0.2428740401 0.060420829 0.0009132518
0.2439656042 0.0583591349 0.000888177247
0.2450571843 0.057650098 0.000886583802
0.2461487485 0.0543649706 0.000873850418
0.2472403286 0.0493185327 0.000863640819
0.2483318928 0.0487547115 0.00085105598
0.249423457 0.0478123938 0.000839852992
0.2505150211 0.0452534533 0.000837484613
0.2516066012 0.0420168209 0.000823383966
0.2526981654 0.0408106878 0.000816635961
0.2537897296 0.0396958543 0.000808365346
0.2548812938 0.0393822696 0.000800414723
0.2559728738 0.0372716343 0.000797946394
0.257064438 0.0350957622 0.0007813054
0.2581560181 0.0335399668 0.000775673628
0.2592475664 0.0321795398 0.000764840138
0.2603391465 0.0310374302 0.000765657574
0.2614307106 0.0292708764 0.000765344728
0.2625222907 0.0278890213 0.000763998129
0.263613839 0.0272965961 0.000764746527
0.2647054191 0.0253368085 0.000748576746
0.2657969833 0.0242953253 0.000756115603
0.2668885634 0.023093656 0.000753684237
0.2679801116 0.0213416652 0.000746461578
0.2690716917 0.0202610499 0.000754634914
0.2701632559 0.0201427329 0.000756108598
0.271254836 0.0187695462 0.000756758818
0.2723464002 0.0190965826 0.000753302867
0.2734379643 0.0173538185 0.00075706072
0.2745295285 0.0167310625 0.000758108092
0.2756211086 0.01647136 0.000753303724
0.2767126728 0.0149108549 0.00075814326
0.2778042529 0.0147485471 0.000751842364
0.2788958011 0.0143743752 0.000751825195
0.2799873812 0.0134080372 0.000741723752
0.2810789454 0.0137885214 0.000742864238
0.2821705255 0.0119317 0.000748888477
0.2832620738 0.0105807436 0.000743635573
0.2843536539 0.0117424724 0.000741365454
0.285445218 0.00964520784 0.000737270335
0.2865367981 0.00929786495 0.000740887334
0.2876283464 0.0101887508 0.000741171609
0.2887199265 0.00981406558 0.000724791101
0.2898114907 0.0102503165 0.000736869024
0.2909030708 0.0087916028 0.000730346435
0.2919946349 0.00750176529 0.000735527307
0.2930861991 0.00731834967 0.000742714546
0.2941777633 0.00754773418 0.000735533786
0.2952693434 0.00672364907 0.000738452599
0.2963609076 0.00649343994 0.000745330057
0.2974524877 0.00597091437 0.000759977078
0.2985440359 0.00586155455 0.000763772884
0.299635616 0.00688414938 0.000764829121
0.3007271802 0.00523173737 0.000776620264
0.3018187603 0.00595173496 0.000768217908
0.3029103085 0.00660424197 0.00077007511
0.3040018886 0.00605639753 0.000773212557
0.3050934528 0.00525218274 0.000774210986
0.3061850329 0.00517332943 0.000788290511
0.3072765812 0.00554217688 0.000783408754
0.3083681613 0.00491125391 0.000788722184
0.3094597254 0.00523033797 0.000784455271
0.3105513055 0.0050255843 0.000790097214
0.3116428697 0.00565871069 0.000783614852
0.3127344339 0.00485453724 0.000787435238
0.3138259981 0.00543268085 0.000804299261
0.3149175781 0.00468502296 0.000792677626
0.3160091582 0.0042777316 0.00081103537
0.3171007224 0.00638092671 0.000789936754
0.3181922866 0.00582438162 0.000804570698
0.3192838667 0.00628215772 0.00080778221
0.320375415 0.00518575198 0.000810046031
0.321466995 0.0059011418 0.00081416654
0.3225585751 0.00477790286 0.000819620182
0.3236501393 0.00331842418 0.000822188574
0.3247416876 0.00319498841 0.000826476123
0.3258332677 0.00467069352 0.000829947851
0.3269248478 0.0052107804 0.000834719659
0.3280164119 0.00488886757 0.000823029771
0.3291079602 0.00452507992 0.000846886426
0.3301995403 0.00450266687 0.000838271498
0.3312911204 0.00405264339 0.000850734405
0.3323827005 0.00467776319 0.000849681344
0.3334742328 0.00501817209 0.000838748653
0.3345658129 0.00413379193 0.00086864867
0.335657393 0.00565979813 0.000849044817
0.3367489731 0.00417152124 0.00086558406
0.3378405054 0.00370510033 0.000869111773
0.3389320855 0.00385191337 0.000861260393
0.3400236656 0.00361748028 0.000881766144
0.3411152457 0.00448770583 0.000865345771
0.3422067781 0.00485491619 0.00088685741
0.3432983582 0.00343884677 0.00087764462
0.3443899383 0.00408002516 0.000881704368
0.3454815184 0.00457804759 0.000894960229
0.3465730507 0.00364757699 0.000879927756
0.3476646308 0.00530595472 0.00089305584
0.3487562109 0.00304174779 0.000884872312
0.349847791 0.00312571085 0.000883462456
0.3509393392 0.00396817626 0.000888321536
0.3520309034 0.00396793684 0.000905483916
0.3531224835 0.00306327436 0.000920663628
0.3542140636 0.00404374911 0.000896969964
0.3553056119 0.00336341555 0.000918554948
0.356397176 0.00402739593 0.000914211044
0.3574887561 0.00314489617 0.000929613989
0.3585803362 0.00321953031 0.000919402189
0.3596718845 0.00361024767 0.000915526163
0.3607634646 0.00483490994 0.000928038494
0.3618550288 0.00148677355 0.000920525991
0.3629466088 0.00329031916 0.000939002063
0.3640381571 0.00365363866 0.000931237419
0.3651297372 0.0032857601 0.000933436788
0.3662213173 0.0031490274 0.000939648056
0.3673128815 0.00497597416 0.000931740213
0.3684044297 0.00334865676 0.000953985378
0.3694960098 0.00330956985 0.000948052769
0.3705875899 0.00280894522 0.000965217863
0.37167917 0.00346846991 0.000971943923
0.3727707024 0.00217386772 0.000961058871
0.3738622825 0.00290415027 0.000972346757
0.3749538625 0.00204851739 0.000957256838
0.3760454426 0.00357337522 0.000970629451
0.377136975 0.00273806267 0.000978364797
0.3782285551 0.0026622051 0.000986309589
0.3793201352 0.00190168212 0.00103625764
0.3804117153 0.00188508457 0.00105659976
0.3815032476 0.00373746836 0.00107163345
0.3825948277 0.00402646325 0.0011056032
0.3836864078 0.00239210613 0.0011163131
0.3847779879 0.00477415521 0.0011258419
0.385869568 0.0028623721 0.00114436931
0.3869611003 0.00465304771 0.00115940518
0.3880526804 0.00288324895 0.00118737773
0.3891442605 0.00308362055 0.00119328499
0.3902358406 0.00399886727 0.00122829005
0.3913273729 0.00301018942 0.00125633576
0.392418953 0.00310357661 0.00126271411
0.3935105331 0.00230329373 0.00129166378
0.3946021132 0.00478913338 0.00130407477
0.3956936456 0.00222681729 0.00134270493
0.3967852257 0.00284964126 0.00137825554
0.3978768058 0.000388482378 0.00141788678
0.3989683858 0.00289929474 0.00139188501
0.4000599341 0.00417338948 0.00141499963
0.4011514983 0.00334425931 0.00142002122
0.4022430784 0.00307236532 0.00143106493
0.4033346585 0.00247350866 0.00146573782
0.4044262067 0.00219722179 0.00148276404
0.4055177868 0.00408522273 0.00149510195
0.406609351 0.00442048603 0.00149581465
0.4077009311 0.00138230854 0.00153329509
0.4087924794 0.00167204241 0.00160804781
0.4098840595 0.00283596316 0.00157986061
0.4109756395 0.00296876385 0.00157534433
0.4120672037 0.00318079923 0.00160310751
0.413158752 0.000652327965 0.00165547081
0.4142503321 0.00414666914 0.00159630739
0.4153419122 0.00241036285 0.00162892121
0.4164334763 0.00121931707 0.00168016728
0.4175250246 0.00209753018 0.00176280984
0.4186166047 0.00245815304 0.00177662689
0.4197081848 0.00136788449 0.00174300217
0.4207997649 0.00338821489 0.00179202865
0.4218912972 0.00261858688 0.0019066704
0.4229828773 0.00614516836 0.0018153149
0.4240744574 0.00281919638 0.00185542091
0.4251660375 0.000518113025 0.00192221088
0.4262575699 0.00351068644 0.00189191174
0.4273491499 0.00404838599 0.00192943313
0.42844073 0.001960284 0.00201930831
0.4295323101 0.00294841118 0.00206997819
0.4317154226 0.00182419287 0.00212398282
0.4328070027 0.00209367959 0.00213110411
0.4338985828 0.00421404481 0.00220987996
0.4349901151 0.000794374387 0.00228006284
0.4360816952 0.0014463456 0.00232427278
0.4371732753 0.00174828513 0.00240925486
0.4382648554 0.00347350503 0.00241122834
0.4393564036 0.00253556254 0.00249777704
0.4404479678 0.00330208883 0.00253240512
0.442631128 0.00781632758 0.00276979733
0.4437226763 0.00482060313 0.00285178375
0.4448142404 0.00529619281 0.00281543963
0.4459058205 0.00304666098 0.00298758067
0.4469974006 0.000222226632 0.00307949708
0.4480889489 0.00275868249 0.00318297312
0.449180529 0.00531564744 0.00319439679
0.4524552215 0.00778219037 0.00368259986
0.4535468016 0.00730275258 0.00401676137
0.456821526 0.0026388979 0.00565829191
0.4590046543 0.00181889022 0.00734750782
0.4600962344 0.00460917396 0.00870819453
0.4611877986 0.00490687748 0.00970678831
0.4622793469 0.0113138045 0.0124614945
0.463370927 0.00702616166 0.0224069261

