# s I dI
0.005270072643 76.5843147 4.74741938
0.006228268002 51.845813 0.805777283
0.007186463043 49.4517636 0.45841011
0.008144657924 41.2466554 0.334055802
0.009102852805 34.5336281 0.249721512
0.01006104769 28.2714096 0.192466473
0.01101924257 24.1396096 0.167919584
0.01197743872 20.5706601 0.143853356
0.0129356336 17.9139523 0.131046506
0.01389382849 15.1651764 0.113311838
0.01485202337 13.1800062 0.103226322
0.01581021825 11.8231027 0.0950078719
0.01676841361 10.2289134 0.0841610452
0.01772660753 9.09567283 0.0787175799
0.01868480305 8.0050451 0.0703552419
0.01964299857 7.07400077 0.0652865914
0.0206011925 6.2691793 0.0598844797
0.02155938801 5.60058717 0.0548829594
0.02251758194 5.13643855 0.0522305251
0.02347578064 4.59340965 0.0471659604
0.02443397457 4.22459768 0.0451844165
0.02539217009 3.8018052 0.041707029
0.02635036401 3.51218495 0.0393166817
0.02730855953 3.15599568 0.0369253368
0.02826675505 2.89409351 0.0343556548
0.02922494897 2.60408375 0.0326020723
0.03018314449 2.41975266 0.0304571953
0.03114133842 2.24392516 0.0290812225
0.03209953394 2.08507292 0.0276452775
0.03305772945 1.96460279 0.0262232502
0.03401592338 1.7841144 0.0250902998
0.0349741189 1.66442982 0.0235248414
0.03593231442 1.59952964 0.0229264814
0.03689050834 1.43333992 0.02143075
0.03784870386 1.36804379 0.0205620882
0.03880690097 1.31911731 0.0202959025
0.03976509649 1.20389654 0.0187970369
0.04072329042 1.15509131 0.0184452969
0.04168148593 1.09227753 0.0176678595
0.04263967986 1.03625634 0.0169914574
0.04359787538 0.994968426 0.0166099567
0.0445560709 0.960797761 0.0159676113
0.04551426482 0.911347585 0.0155938053
0.04647246034 0.845216889 0.0146611863
0.04743065427 0.800861916 0.0142807316
0.04838884978 0.774532639 0.0139763526
0.0493470453 0.742663188 0.0134828961
0.05030523923 0.695453857 0.0130620263
0.05126343475 0.663907948 0.0124616771
0.05222163027 0.6253317 0.0121649577
0.05317982419 0.606339183 0.0118803122
0.05413801971 0.58293395 0.011479167
0.05509621364 0.564802841 0.0113571074
0.05605440915 0.547962201 0.0110320837
0.05701260467 0.494302119 0.0107160678
0.0579707986 0.483766711 0.0105971727
0.05892899412 0.462778128 0.0104569863
0.05988718804 0.444523083 0.0103109667
0.06084538356 0.443752287 0.010159889
0.06180358385 0.40899477 0.00997400818
0.06276177778 0.395379811 0.0096593639
0.0637199733 0.399410037 0.00973975156
0.06467816882 0.374029896 0.0094196483
0.06563636274 0.364166105 0.0093038407
0.06659455826 0.350951043 0.00922302205
0.06755275219 0.346330531 0.00892037668
0.0685109477 0.337300396 0.00892555959
0.06946914322 0.334051241 0.00878463092
0.07042733715 0.330856247 0.00873582102
0.07138553267 0.323689946 0.00878953276
0.07234372659 0.300143581 0.00830318829
0.07330192211 0.316555872 0.00860960862
0.07426011763 0.320724637 0.00844880574
0.07521831156 0.331385684 0.00840748192
0.07617650707 0.33224378 0.00831429316
0.07713470259 0.33072206 0.00807830053
0.07809289652 0.330679013 0.00800122261
0.07905109204 0.329917702 0.00789079263
0.08000929074 0.33480521 0.00786877351
0.08096748148 0.33132974 0.00773536046
0.08192568177 0.333048941 0.00767557603
0.08288387093 0.335081251 0.0077345008
0.08384207122 0.331111359 0.00750325928
0.08480026037 0.329055098 0.00746020646
0.08575846066 0.34474195 0.0075281395
0.08671665141 0.350342627 0.00758064461
0.08767485011 0.339033314 0.00743706464
0.08863304085 0.340074891 0.00731794954
0.08959124114 0.330603092 0.00730219486
0.09054943029 0.325990077 0.00713092252
0.09150763059 0.332849118 0.0071708914
0.09246581974 0.329296926 0.00706341941
0.09342402003 0.329484439 0.00701874324
0.09438221077 0.330961545 0.00705496325
0.09534040948 0.327633 0.00689527114
0.09629860022 0.324084006 0.00686907137
0.09725679892 0.321555105 0.00675240723
0.09821498966 0.316151262 0.00668906003
0.09917318996 0.307300602 0.00661416693
0.1001313791 0.302861027 0.00648092203
0.1010895794 0.303154646 0.00645791543
0.1020477701 0.307121418 0.00640665006
0.1030059688 0.291533814 0.0062910378
0.1039641596 0.287079968 0.00628525947
0.1049223583 0.296416682 0.00630046756
0.105880549 0.303153618 0.00635250066
0.1068387493 0.29522284 0.0061736973
0.107796948 0.292163375 0.00616698061
0.1087551388 0.29086267 0.00611336589
0.1097133375 0.292414818 0.00605187986
0.1106715282 0.286578308 0.00601707224
0.1116297285 0.280936589 0.00587272455
0.1125879177 0.280471297 0.00589638909
0.113546118 0.283762567 0.00591355773
0.1145043087 0.284391133 0.00586343648
0.1154625074 0.284984273 0.00587439445
0.1164206981 0.282375499 0.00571790681
0.1173788968 0.273056635 0.00565779886
0.1183370876 0.266131912 0.00559749616
0.1192952879 0.265051929 0.00555737154
0.120253477 0.2743772 0.00560126402
0.1212116773 0.263421611 0.00546843266
0.1221698665 0.264688941 0.00550256204
0.1231280668 0.250685184 0.00532015791
0.1240862575 0.25262906 0.00533581846
0.1250444562 0.254797604 0.00537124468
0.126002647 0.258111054 0.00531166143
0.1269608457 0.247738017 0.00519342614
0.1279190364 0.243821925 0.0051583076
0.1288772367 0.237575605 0.00510933216
0.1298354258 0.225864324 0.00507877456
0.1307936261 0.228269644 0.00509803575
0.1317518169 0.224157876 0.00511369501
0.1327100156 0.220247864 0.00502606468
0.1336682063 0.217432201 0.00502088104
0.134626405 0.212583284 0.00497780693
0.1355845958 0.200677057 0.00493417297
0.1365427961 0.201076344 0.00491018129
0.1375009852 0.203005228 0.00488355024
0.1384591855 0.203477019 0.00492062545
0.1394173842 0.197776487 0.00482125436
0.1403755749 0.19200362 0.00480173588
0.1413337752 0.186636403 0.00475674731
0.1422919644 0.185212412 0.00472183271
0.1432501647 0.180310849 0.00468709631
0.1442083554 0.183634034 0.00468142166
0.1451665541 0.182865956 0.00468693724
0.1461247449 0.17688362 0.00461260459
0.1470829436 0.17409395 0.00454897981
0.1480411343 0.17145497 0.00445391668
0.1489993346 0.182876803 0.00448595599
0.1499575238 0.184028772 0.00452410125
0.1509157241 0.188730729 0.00447630591
0.1518739148 0.187656068 0.00449323876
0.1528321135 0.178192292 0.00434966751
0.1537903042 0.190162197 0.00439819809
0.1547485029 0.197557662 0.00451404685
0.1557066937 0.198414332 0.00445707177
0.156664894 0.204171911 0.00453359475
0.1576230831 0.199264284 0.00444894099
0.1585812834 0.201168459 0.00442786812
0.1595394773 0.210426954 0.00452469392
0.1604976697 0.212310192 0.00449301725
0.161455862 0.225441636 0.00461262938
0.1624140703 0.221244531 0.00455697517
0.1633722626 0.233319005 0.00463777444
0.164330439 0.237871596 0.00465005404
0.1652886473 0.250816822 0.00470844852
0.1662468396 0.261606585 0.00483407333
0.1672050479 0.263769879 0.00476732574
0.1681632243 0.272756213 0.00483083015
0.1691214166 0.278263608 0.00488314509
0.1700796249 0.28930088 0.00491306882
0.1710378172 0.304481813 0.00504512096
0.1719960254 0.321815963 0.00508092438
0.1729542019 0.329485315 0.00520249656
0.1739123942 0.351246581 0.0052866851
0.1748706025 0.363608836 0.00534519403
0.1758287948 0.383843597 0.00547226229
0.1767869871 0.395617208 0.00550261935
0.1777451795 0.421397878 0.00566075542
0.1787033877 0.437828231 0.00571444124
0.17966158 0.46243995 0.00584455359
0.1806197565 0.476997345 0.00592636912
0.1815779647 0.501259488 0.00602204206
0.182536157 0.525506676 0.0061526736
0.1834943653 0.549207308 0.00623564143
0.1844525417 0.567832662 0.0063266956
0.1854107341 0.589594152 0.00643002936
0.1863689423 0.597493868 0.00640475412
0.1873271346 0.614061016 0.00650292203
0.188285327 0.624556137 0.00652631555
0.1892435193 0.633324887 0.0065493065
0.1902017276 0.656308804 0.00664946343
0.1911599199 0.658975818 0.00660710495
0.1921180963 0.658466742 0.00661353479
0.1930763046 0.657264873 0.0065677388
0.1940344969 0.674485776 0.00664461709
0.1949927051 0.676421534 0.00663738203
0.1959508816 0.676680539 0.00661647399
0.1969090739 0.690437788 0.00666197232
0.1978672822 0.694481495 0.00666551609
0.1988254745 0.706421097 0.00672075229
0.1997836827 0.698936544 0.00666172853
0.2007418592 0.708627579 0.00666899022
0.2017000515 0.713010924 0.0066859637
0.2026582597 0.71290793 0.00663464996
0.2036164521 0.723826541 0.00669750218
0.2045746444 0.722568645 0.00664356682
0.2055328367 0.734661802 0.00670803677
0.206491045 0.73200205 0.00666804757
0.2074492373 0.744559186 0.00669070117
0.2084074138 0.749927089 0.00670513486
0.209365622 0.764336099 0.00672450926
0.2103238143 0.770589795 0.00676948873
0.2112820226 0.771166573 0.0067293387
0.212240199 0.786534162 0.00679448924
0.2131983913 0.77473002 0.00672394292
0.2141565996 0.798451323 0.0067953949
0.2151147919 0.80688888 0.006836816
0.2160729843 0.818531967 0.00681213861
0.2170311766 0.831262147 0.00689249081
0.2179893689 0.840167208 0.00689273287
0.2189475772 0.846705011 0.00690219307
0.2199057536 0.85456705 0.00693707413
0.2208639619 0.857370757 0.00690376204
0.2218221542 0.883158561 0.00701494472
0.2227803624 0.872366762 0.00692680841
0.2237385389 0.884906763 0.00697548269
0.2246967312 0.886818615 0.00698491721
0.2256549394 0.885343246 0.00691774963
0.2266131318 0.886084635 0.00694575842
0.2275713241 0.873035157 0.00684362189
0.2285295164 0.87431389 0.006882683
0.2294877088 0.870964809 0.00693376532
0.230445917 0.857018769 0.00690884643
0.2314041094 0.84731447 0.00692849401
0.2323623017 0.829382662 0.00682884679
0.233320494 0.808377324 0.00679005676
0.2342787023 0.769164868 0.00664072261
0.2352368946 0.74569629 0.006571486
0.236195071 0.717828077 0.0064639928
0.2371532793 0.6944853 0.00642438178
0.2381114716 0.672923052 0.00641006947
0.2390696799 0.644640849 0.00627882717
0.2400278563 0.619392538 0.00622818867
0.2409860486 0.597981309 0.00614792075
0.2419442569 0.563585959 0.00600380826
0.2429024492 0.54483619 0.00596486808
0.2438606416 0.519960542 0.00580092795
0.2448188339 0.496845348 0.00570827863
0.2457770262 0.466777546 0.0055749592
0.2467352345 0.449341545 0.00549046636
0.2476934109 0.434063749 0.00541592444
0.2486516191 0.405626149 0.00524976931
0.2496098115 0.391726777 0.00518817324
0.2505680197 0.367538285 0.00501373802
0.2515261961 0.351564466 0.00497085553
0.2524843885 0.33262245 0.00486249041
0.2534425967 0.319677574 0.00476593904
0.2544007891 0.310821665 0.00473896811
0.2553589655 0.289313735 0.004563783
0.2563171737 0.28102705 0.0045546382
0.2572753661 0.268864875 0.00446866291
0.2582335743 0.26246546 0.00442393644
0.2591917507 0.251311448 0.00437666935
0.260149959 0.236043429 0.00431101361
0.2611081513 0.217765138 0.00426174848
0.2620663596 0.210609817 0.0041911281
0.2630245519 0.200196267 0.0041354284
0.2639827283 0.195153012 0.00411151462
0.2649409366 0.184360448 0.00404858777
0.2658991289 0.170036542 0.00394178159
0.2668573372 0.164487029 0.00385832371
0.2678155136 0.160565745 0.00385728835
0.2687737059 0.151173372 0.00380758572
0.2697319142 0.145766385 0.00373856986
0.2706901065 0.143455428 0.00376788618
0.2716482988 0.135110583 0.00362305265
0.2726064912 0.125612315 0.00360650755
0.2735646835 0.123953007 0.00354022958
0.2745228918 0.115913921 0.00348518286
0.2754810682 0.110643816 0.00345810157
0.2764392764 0.111704927 0.00343072029
0.2773974688 0.0991720431 0.00335076602
0.278355677 0.100336249 0.00329005167
0.2793138534 0.101490614 0.00341076558
0.2802720458 0.0938013137 0.00332045241
0.281230254 0.0878808757 0.00326784286
0.2821884464 0.083880072 0.00319157501
0.2831466228 0.0850360647 0.0031486039
0.284104831 0.0783602095 0.00314144804
0.2850630234 0.0726934869 0.00314403193
0.2860212316 0.0774942974 0.00317736822
0.286979408 0.0699230628 0.00315112904
0.2879376163 0.0649998447 0.00304407702
0.2888958086 0.0621198866 0.00306763898
0.2898540169 0.0643553857 0.00307280122
0.2908121933 0.0600128519 0.00302753296
0.2917703856 0.0566053121 0.00296479038
0.2927285939 0.0585759351 0.00300680174
0.2936867862 0.0580757867 0.00305385811
0.2946449945 0.056052782 0.00295395843
0.2956031709 0.0530860476 0.00298150838
0.2965613632 0.0539271452 0.0029756466
0.2975195715 0.0485965356 0.00291097937
0.2984777638 0.0486850232 0.00292683674
0.2994359561 0.0490318527 0.00292579224
0.3003941485 0.0513210759 0.00296631447
0.3013523408 0.0468709289 0.00288074622
0.3023105491 0.0433037468 0.00288257365
0.3032687255 0.0500771502 0.00293491661
0.3042269337 0.0428674751 0.00289594966
0.3051851261 0.0476480251 0.00297781448
0.3061433343 0.044212533 0.00292674887
0.3071015107 0.047348474 0.00301754245
0.3080597031 0.0413800905 0.00294140962
0.3090179113 0.048903206 0.00304802917
0.3099761036 0.0438804632 0.00298795341
0.3109342801 0.0442777503 0.00295871887
0.3118924883 0.0405612334 0.0030176932
0.3128506806 0.0374571657 0.00290261719
0.3138088889 0.0386065634 0.00295460698
0.3147670653 0.0387547674 0.00298735529
0.3157252736 0.0375036584 0.00299010081
0.3166834659 0.041415827 0.00303966962
0.3176416582 0.0376137626 0.00294642334
0.3185998665 0.0405217826 0.00309387411
0.3195580588 0.0398227511 0.00310237612
0.3205162193 0.0337083311 0.00296977547
0.3214744276 0.0415996557 0.0031074492
0.3224326199 0.0420644063 0.00301426974
0.3233908282 0.0444026379 0.00316033725
0.3243490205 0.039443364 0.00308562781
0.3253072287 0.0439239403 0.0031480175
0.3262654211 0.0410801856 0.00312212053
0.3272236293 0.0451875168 0.00317171158
0.3281818217 0.0431034048 0.00314342185
0.3291399822 0.0456209931 0.00318600598
0.3300981904 0.0415893646 0.00318470794
0.3310563828 0.0464625588 0.00327054491
0.332014591 0.0436202264 0.00325916492
0.3329727833 0.0456098179 0.00347028665
0.3339309916 0.0422557256 0.00347775999
0.3348891839 0.0424327421 0.00356524704
0.3358473763 0.042336506 0.0035579173
0.3368055527 0.0428324174 0.00367054055
0.337763745 0.0406753592 0.00364240342
0.3387219374 0.0401483224 0.00371558974
0.3396801456 0.0376151687 0.00365371293
0.3406383379 0.0382451253 0.00384843487
0.3415965462 0.0372677929 0.00396963614
0.3425547385 0.0419517911 0.00407258281
0.3435129468 0.0438982785 0.00416297223
0.3444711073 0.0377580627 0.00417474242
0.3454292996 0.0327181684 0.00408524345
0.3463875079 0.0310673941 0.00401937419
0.3473457002 0.0406567469 0.00438480353
0.3483039084 0.0372486738 0.0044221378
0.3492621008 0.032581028 0.00427776499
0.350220309 0.0332208014 0.00441407439
0.3511785014 0.0383474579 0.00445265177
0.3521366619 0.0405863149 0.00459358951
0.3530948701 0.0342174627 0.0044299569
0.3540530625 0.0310133402 0.00455516391
0.3550112548 0.0358344701 0.00466108289
0.355969463 0.0277691639 0.00461248705
0.3569276554 0.0296398443 0.00487967052
0.3578858636 0.0341023708 0.0049065093
0.358844056 0.0289925174 0.0048521138
0.3598022642 0.0318880204 0.00481445578
0.3607604247 0.030697681 0.00507472955
0.3617186171 0.0283402198 0.00510376536
0.3626768253 0.0337405735 0.00507822278
0.3636350176 0.0329416039 0.00524450479
0.3645932259 0.0306232308 0.00527006673
0.3655514182 0.0311496108 0.00542676825
0.3665096265 0.0263624026 0.00522925707
0.3674678188 0.0329472204 0.00538176498
0.3684259793 0.0347443428 0.0054336572
0.3693841876 0.0335168428 0.00572433846
0.3703423799 0.0290180497 0.00564218258
0.3713005881 0.0409372455 0.00604281492
0.3722587805 0.0248098222 0.00578115846
0.3732169728 0.0339895088 0.00615427369
0.3741751811 0.0252090248 0.00583039172
0.3751333734 0.0286883419 0.00613067392
0.3760915339 0.0246033358 0.00584507406
0.3770497422 0.0240288987 0.00580092053
0.3780079345 0.0276763174 0.00600172036
0.3789661427 0.0278895843 0.00625552406
0.3799243351 0.0198423407 0.00678626657
0.3808825433 0.024132693 0.00646748953
0.3818407357 0.0181262535 0.00604073913
0.3827989439 0.0392785069 0.00720811386
0.3837571362 0.0250603028 0.00686388005
0.3847152968 0.0166754975 0.0073027965
0.385673505 0.0163409882 0.00764901425
0.3866316973 0.0294543669 0.007789211
0.3875899056 0.0227406497 0.00736157209
0.3885480979 0.0335035151 0.00864765043
0.3895063062 0.0145490113 0.00867372311
0.3904644985 0.027801857 0.00865724713
0.3914226908 0.00965179439 0.00835485993
0.3923808513 0.0349820741 0.0101637551
0.3933390596 0.0438331585 0.0106879903
0.3942972519 0.0306495244 0.0103261966
0.3952554602 0.0245865814 0.0112160464
0.3962136525 0.0202032476 0.0103896308
0.3971718608 0.0170339744 0.0122455814
0.3981300531 0.0166265212 0.0122170018
0.3990882614 0.0360500444 0.0147855359
0.4000464219 0.0571517011 0.0169334797
0.4010046142 0.0199612123 0.0165993696
0.4019628224 0.0505544654 0.0202000597
0.4029210148 0.0656693341 0.0242944057
0.403879223 0.0219766918 0.0262552372
0.4048374154 0.00213889973 0.0187898978
0.4057956236 0.0210475419 0.0294126559

