# s I dI
0.009278334181 4.15538179 0.0838111831
0.01036990266 3.75174417 0.0531416192
0.01146147129 3.21103924 0.0390087648
0.01255303992 2.81876 0.0333936707
0.01364460967 2.40822483 0.0278974513
0.01473617814 2.11884307 0.0254328048
0.01582774678 1.91526756 0.0226348239
0.01691931477 1.71320079 0.0208647722
0.01801088373 1.55011421 0.0194372586
0.01910245268 1.39614854 0.0171477763
0.02019402163 1.23027572 0.0161266155
0.02128558899 1.12561971 0.0147037479
0.02237715794 1.02260712 0.0138763305
0.02346872689 0.906153018 0.0127536048
0.02456029585 0.812870024 0.0118090652
0.02565186321 0.73516945 0.0111650245
0.02674343534 0.660725488 0.0100791621
0.02783500429 0.606780681 0.00970950362
0.02892657165 0.548588671 0.00897811107
0.03001814061 0.503575938 0.00848304179
0.03110970956 0.460597453 0.0080989244
0.03220127851 0.417679594 0.00744189907
0.03329284587 0.379111528 0.00717105898
0.03438441482 0.339701609 0.0066065996
0.03547598377 0.309096528 0.00628886617
0.03656755272 0.28690981 0.00603837316
0.03765912009 0.245012682 0.00540548511
0.03875068904 0.229603288 0.00533635256
0.03984225799 0.205159201 0.00497691114
0.04093382694 0.180448585 0.00469819415
0.0420253943 0.162141656 0.0044269544
0.04311696325 0.147494686 0.00419067734
0.0442085322 0.132898714 0.00398861955
0.04530010116 0.115037765 0.00368474119
0.04639167011 0.101233522 0.00355268851
0.04748323747 0.0932092728 0.00335232076
0.04857480642 0.0832373863 0.00321711393
0.04966637537 0.0857838937 0.00322215903
0.05075794432 0.0806808688 0.00304810651
0.05184951168 0.071530899 0.00300286258
0.05294108541 0.0707135285 0.00292980484
0.05403265436 0.0717227146 0.00288878594
0.05512422331 0.0706265613 0.00286799359
0.05621579067 0.0771691373 0.00282105996
0.05730735963 0.0728788768 0.00280227805
0.05839892858 0.0669629719 0.00269864716
0.05949049753 0.0718473714 0.00274881905
0.06058206489 0.0697531135 0.00267422343
0.06167363384 0.0689993207 0.00260449675
0.06276520279 0.0727577523 0.00267001738
0.06385677175 0.0750742202 0.00264660267
0.0649483407 0.0790817209 0.00274685849
0.06603990806 0.0770854134 0.00273175443
0.06713147701 0.0841782803 0.00279567106
0.06822304596 0.0839642779 0.00282752847
0.06931461491 0.0860947547 0.00278014095
0.07040618227 0.0881507641 0.00286305447
0.07149775123 0.0882968253 0.00283782739
0.07258932018 0.0884998681 0.00283573398
0.07368088913 0.0950211465 0.00291543418
0.07477245649 0.0981310559 0.00287221082
0.07586402544 0.101918348 0.00296750391
0.07695559439 0.104600365 0.00296157763
0.07804716335 0.109470276 0.00303387841
0.07913873071 0.116271875 0.00305970971
0.08023030443 0.114653261 0.0030208234
0.08132187338 0.118088704 0.00307734116
0.08241344234 0.122179492 0.00306309945
0.08350501129 0.128976285 0.00314551509
0.08459657865 0.131605206 0.00309527338
0.0856881476 0.13567161 0.00306860931
0.08677971655 0.143745575 0.00308287416
0.0878712855 0.144673269 0.0030242878
0.08896285286 0.147039018 0.00304211744
0.09005442182 0.145654537 0.00297670991
0.09114599077 0.141911375 0.00296037338
0.09223755972 0.141946522 0.00293558334
0.09332912708 0.147083357 0.00290070114
0.09442069603 0.149650537 0.00291176447
0.09551226498 0.147317251 0.00287044483
0.09660383394 0.14644833 0.0028513789
0.09769540289 0.148411478 0.00283684082
0.09878697025 0.148051668 0.00280228265
0.0998785392 0.145057666 0.00277008866
0.1009701082 0.149477697 0.00275520103
0.1020616771 0.143198328 0.0027243008
0.1031532445 0.142803937 0.00269799619
0.1042448134 0.142280113 0.0026782838
0.1053363824 0.148880116 0.00268734637
0.1064279513 0.142392913 0.00262608432
0.1075195187 0.144865332 0.00264795958
0.1086110876 0.147720497 0.00264198673
0.1097026566 0.145176206 0.00262417881
0.1107942255 0.147294099 0.00262016206
0.1118857929 0.143090451 0.00256181718
0.1129773618 0.145485696 0.0025711923
0.1140689308 0.150293007 0.00257790378
0.1151604998 0.149407484 0.00256030532
0.1162520687 0.150453907 0.00255438718
0.1173436361 0.147512972 0.00252619701
0.118435205 0.147500291 0.00251886763
0.119526774 0.146572538 0.00248627012
0.1206183429 0.145559336 0.0024813191
0.1217099103 0.15079549 0.00248622382
0.1228014792 0.151184462 0.00248934376
0.1238930482 0.15160371 0.00248565898
0.1249846171 0.150183253 0.0024213919
0.1260761845 0.15383051 0.00247232378
0.1271677534 0.154182527 0.00244645997
0.1282593224 0.150336184 0.00243588153
0.1293508913 0.157482395 0.00244972232
0.1304424587 0.154542819 0.00240690987
0.1315340277 0.153465505 0.00241842926
0.1326255966 0.154029499 0.00238619039
0.1337171656 0.150981558 0.00236974428
0.1348087345 0.150104596 0.00235247
0.1359003019 0.152623405 0.00234970873
0.1369918708 0.150118692 0.00234136835
0.1380834398 0.15037247 0.00230886996
0.1391750087 0.149231836 0.00230975943
0.1402665856 0.151222365 0.00230247462
0.1413581546 0.150068462 0.00229220097
0.1424497235 0.151421359 0.0023034598
0.1435412925 0.148510447 0.0022433998
0.1446328599 0.150230338 0.00227669713
0.1457244288 0.148273061 0.00224048782
0.1468159978 0.144708641 0.00222543911
0.1479075667 0.146731681 0.00226039971
0.1489991341 0.14814558 0.00228162816
0.150090703 0.151235921 0.00231558557
0.151182272 0.148087388 0.00227799694
0.1522738409 0.146583549 0.00228812924
0.1533654099 0.144800405 0.00226671142
0.1544569772 0.146003174 0.00227880976
0.1555485462 0.150832265 0.00231839017
0.1566401151 0.150070169 0.00229550286
0.1577316841 0.149976344 0.0023114034
0.1588232515 0.149401775 0.00229335217
0.1599148284 0.1564331 0.00234519726
0.1610063766 0.160608726 0.00238365071
0.1620979567 0.16522993 0.00237104819
0.1631895209 0.170160287 0.00243020077
0.164281101 0.178296554 0.00243744572
0.1653726493 0.185934142 0.00250247931
0.1664642293 0.189967404 0.00251715138
0.1675557935 0.20025729 0.00256159949
0.1686473736 0.215125195 0.00260529703
0.1697389219 0.22287406 0.00259308362
0.170830502 0.239853624 0.00267465494
0.1719220661 0.259261125 0.00272631469
0.1730136462 0.269144735 0.00275404184
0.1741052104 0.291014763 0.00285547526
0.1751967746 0.312965783 0.0028988247
0.1762883547 0.339171546 0.00301037788
0.1773799189 0.358767475 0.00304979913
0.178471499 0.3901307 0.00316234319
0.1795630472 0.417178615 0.00326476209
0.1806546273 0.452609063 0.00333063106
0.1817461915 0.492281829 0.00348339539
0.1828377716 0.526175491 0.00355018795
0.1839293358 0.573704092 0.00370344686
0.1850208999 0.619855573 0.00381453215
0.1861124641 0.668831182 0.00393034298
0.1872040442 0.726739015 0.00409499484
0.1882956084 0.785401123 0.00419088649
0.1893871885 0.860540649 0.00439564819
0.1904787367 0.923504758 0.00450731214
0.1915703168 0.991548408 0.00466041852
0.192661881 1.05215107 0.00479698708
0.1937534611 1.1131991 0.00485874017
0.1948450094 1.16556507 0.00499936404
0.1959365895 1.19995424 0.00501587585
0.1970281536 1.25176965 0.00512372268
0.1981197337 1.27165716 0.00514876425
0.199211282 1.29168461 0.00514448669
0.2003028621 1.30187661 0.00518589087
0.2013944263 1.30219055 0.00512668038
0.2024860063 1.31606066 0.00517234366
0.2035775705 1.32326491 0.00514543437
0.2046691347 1.32543769 0.00514209184
0.2057606989 1.33599348 0.00516167962
0.206852279 1.33535804 0.00510384937
0.2079438432 1.33798255 0.00512282443
0.2090354232 1.33360163 0.00507844389
0.2101269715 1.339751 0.00508681239
0.2112185516 1.34282393 0.00508986365
0.2123101158 1.34433383 0.00504167201
0.2134016959 1.3537324 0.00507333006
0.2144932441 1.35206513 0.00503507686
0.2155848242 1.37044331 0.00506246852
0.2166763884 1.37365199 0.00505444243
0.2177679685 1.38406445 0.00505016357
0.2188595168 1.39757379 0.00507021431
0.2199510968 1.40557925 0.00504917927
0.221042661 1.4139216 0.00506821239
0.2221342411 1.43869214 0.00508313552
0.2232258053 1.45192152 0.00509947213
0.2243173695 1.46950296 0.00512234088
0.2254089336 1.47703475 0.00510496233
0.2265005137 1.50211693 0.00515363195
0.2275920779 1.5206909 0.00515267318
0.228683658 1.53481223 0.00516441658
0.2297752063 1.54547228 0.00517307084
0.2308667864 1.557651 0.00515910567
0.2319583505 1.55759368 0.00516583424
0.2330499306 1.55527702 0.00513319297
0.2341414789 1.53385442 0.00510176021
0.235233059 1.49312213 0.00501750837
0.2363246232 1.44074849 0.00491068705
0.2374162033 1.36152581 0.00478209856
0.2385077515 1.27962349 0.00459782144
0.2395993316 1.20289002 0.00447445037
0.2406908958 1.11326623 0.00428081333
0.2417824759 1.03366945 0.00413713214
0.2428740401 0.959657856 0.00399163451
0.2439656042 0.88411178 0.00379501676
0.2450571843 0.813244383 0.00366775311
0.2461487485 0.748217938 0.00349537181
0.2472403286 0.69591878 0.00338875714
0.2483318928 0.646251094 0.00325743909
0.249423457 0.602551935 0.00313605121
0.2505150211 0.553797528 0.00302614876
0.2516066012 0.516540055 0.00290290642
0.2526981654 0.480746329 0.00281746311
0.2537897296 0.447627779 0.00271230031
0.2548812938 0.414516865 0.00261180291
0.2559728738 0.386309354 0.00253595439
0.257064438 0.357102942 0.00241854047
0.2581560181 0.332801355 0.00235927098
0.2592475664 0.311593552 0.0022783259
0.2603391465 0.293387312 0.00221923467
0.2614307106 0.269335784 0.00215492958
0.2625222907 0.250970559 0.00209867636
0.263613839 0.233577171 0.00204977235
0.2647054191 0.218434112 0.00198569622
0.2657969833 0.202699008 0.00194191303
0.2668885634 0.187196457 0.00187977934
0.2679801116 0.177955102 0.00184734352
0.2690716917 0.163716074 0.00179075678
0.2701632559 0.149843376 0.00174537764
0.271254836 0.143266481 0.00174342313
0.2723464002 0.13018612 0.00168507277
0.2734379643 0.122085187 0.00165654806
0.2745295285 0.114691764 0.00163178286
0.2756211086 0.109076398 0.00158286443
0.2767126728 0.105014259 0.00157834262
0.2778042529 0.0987895333 0.00153655896
0.2788958011 0.0900274402 0.00150396306
0.2799873812 0.083831034 0.00146659533
0.2810789454 0.0802588995 0.00145178425
0.2821705255 0.07552423 0.00141955628
0.2832620738 0.0698808874 0.00138100553
0.2843536539 0.0668825339 0.00138302511
0.285445218 0.0630565184 0.00136736089
0.2865367981 0.0635031921 0.00136813624
0.2876283464 0.0608213747 0.00135596478
0.2887199265 0.0561127858 0.00131014383
0.2898114907 0.0553557812 0.00131873567
0.2909030708 0.0533076658 0.0012980318
0.2919946349 0.0523971172 0.00129559784
0.2930861991 0.0496521345 0.00127634543
0.2941777633 0.0479511354 0.00126617969
0.2952693434 0.0497099599 0.00128789287
0.2963609076 0.0485395109 0.00129151079
0.2974524877 0.0486779269 0.0013134755
0.2985440359 0.0464982805 0.00129493613
0.299635616 0.0463890065 0.00131535693
0.3007271802 0.0449587166 0.00131460498
0.3018187603 0.0445514573 0.00130079563
0.3029103085 0.0416348092 0.00131260003
0.3040018886 0.043925942 0.00132415993
0.3050934528 0.0426760169 0.00131465696
0.3061850329 0.0422251909 0.00131127604
0.3072765812 0.0408111466 0.0013089255
0.3083681613 0.0424262628 0.00133853175
0.3094597254 0.0422862054 0.00132779877
0.3105513055 0.0435003772 0.00134740833
0.3116428697 0.040914842 0.00132365271
0.3127344339 0.0436604584 0.00134132604
0.3138259981 0.0392838092 0.0013367551
0.3149175781 0.0390619997 0.00131606353
0.3160091582 0.0392298858 0.00134725969
0.3171007224 0.0405298935 0.00133926655
0.3181922866 0.0405471841 0.00133287661
0.3192838667 0.0409645737 0.00134813689
0.320375415 0.0378907954 0.00133654138
0.321466995 0.0393438041 0.00136722578
0.3225585751 0.0377160502 0.00134004157
0.3236501393 0.0389324766 0.00136746108
0.3247416876 0.0384123357 0.00135667801
0.3258332677 0.0362045525 0.0013557853
0.3269248478 0.0379610701 0.0013970556
0.3280164119 0.0388202258 0.00137479879
0.3291079602 0.0340100651 0.00136309702
0.3301995403 0.0347827979 0.00135165467
0.3312911204 0.0353752768 0.00138532845
0.3323827005 0.0320571127 0.00137202803
0.3334742328 0.0339844972 0.0013655919
0.3345658129 0.0353165621 0.00137973865
0.335657393 0.0344376094 0.00136729825
0.3367489731 0.0339001492 0.0013897306
0.3378405054 0.0336282317 0.0013961144
0.3389320855 0.0349210049 0.00140014861
0.3400236656 0.0311390114 0.00140172191
0.3411152457 0.0316369752 0.00137371771
0.3422067781 0.0316276424 0.00139593416
0.3432983582 0.0316502416 0.00138724611
0.3443899383 0.0308464081 0.00139575688
0.3454815184 0.0312932386 0.00140767421
0.3465730507 0.0319014714 0.00139782487
0.3476646308 0.0297859638 0.00141446514
0.3487562109 0.0279785856 0.00137827974
0.349847791 0.0292341754 0.00141508282
0.3509393392 0.0259386526 0.00138340351
0.3520309034 0.0292563877 0.00139955423
0.3531224835 0.0280227695 0.00142318342
0.3542140636 0.0287422208 0.00140519664
0.3553056119 0.0261135817 0.00141744083
0.356397176 0.0269572696 0.00141120547
0.3574887561 0.0280253865 0.00143837511
0.3585803362 0.0253989868 0.00143183194
0.3596718845 0.0247563315 0.00140448925
0.3607634646 0.0249632726 0.00143462415
0.3618550288 0.0237743112 0.00139635308
0.3629466088 0.0223058126 0.0014142259
0.3640381571 0.0225819898 0.00139714806
0.3651297372 0.0246786639 0.00142111912
0.3662213173 0.0255307779 0.00144113415
0.3673128815 0.0221180023 0.00139904523
0.3684044297 0.0221227295 0.00142198027
0.3694960098 0.0243359009 0.00142971294
0.3705875899 0.022587753 0.00143463162
0.37167917 0.0223790393 0.0014570629
0.3727707024 0.022299086 0.001432576
0.3738622825 0.0203575676 0.0014325676
0.3749538625 0.0209776029 0.00143121503
0.3760454426 0.0235797406 0.00146838047
0.377136975 0.0224657433 0.00144663786
0.3782285551 0.018702106 0.0014396144
0.3793201352 0.0189838645 0.00151470301
0.3804117153 0.0190366168 0.00153528133
0.3815032476 0.017009658 0.00155554484
0.3825948277 0.0191526078 0.00162830657
0.3836864078 0.0211313311 0.00164828799
0.3847779879 0.0170880058 0.00164589572
0.385869568 0.0155449634 0.0016625196
0.3869611003 0.0179524693 0.00169372669
0.3880526804 0.0186935258 0.00176581532
0.3891442605 0.0167141863 0.00176758021
0.3902358406 0.018179776 0.00179050797
0.3913273729 0.0140581227 0.00180279475
0.392418953 0.0150244529 0.00180936913
0.3935105331 0.013953846 0.00181459253
0.3946021132 0.0163810824 0.00187757485
0.3956936456 0.0189869499 0.00193394874
0.3967852257 0.0170416493 0.00197363855
0.3978768058 0.0145672763 0.00195804746
0.3989683858 0.0180118269 0.00209290319
0.4000599341 0.0157169855 0.00205617753
0.4011514983 0.0124070882 0.00201838587
0.4022430784 0.0151884699 0.00211529297
0.4033346585 0.0172165607 0.00212496807
0.4044262067 0.0193598405 0.00218523998
0.4055177868 0.0159440453 0.00216516801
0.406609351 0.0145423065 0.00217641356
0.4077009311 0.0131771219 0.00218974511
0.4087924794 0.0138665695 0.00222279531
0.4098840595 0.0160044455 0.00228384338
0.4109756395 0.0141113755 0.00225464999
0.4120672037 0.0192741553 0.0022968032
0.413158752 0.016623204 0.00233654837
0.4142503321 0.016609126 0.00239667006
0.4153419122 0.0122460783 0.00239802334
0.4164334763 0.0127525635 0.00236853028
0.4175250246 0.0149764751 0.00241333964
0.4186166047 0.0137098422 0.00247168649
0.4197081848 0.0176307475 0.00260369054
0.4207997649 0.0163953282 0.00258622535
0.4218912972 0.0137684533 0.00266801655
0.4229828773 0.0166405115 0.00264960228
0.4240744574 0.01925214 0.00275835439
0.4251660375 0.010709008 0.00271302852
0.4262575699 0.0166860096 0.00285952796
0.4273491499 0.0122751531 0.00280038482
0.42844073 0.0112374826 0.00285495199
0.4295323101 0.0143015321 0.00290814464
0.4306238425 0.0160790002 0.00294212665
0.4317154226 0.0107365149 0.00294705288
0.4328070027 0.0135566503 0.00307983485
0.4338985828 0.0143580695 0.00308441893
0.4349901151 0.0185432255 0.00330678579
0.4360816952 0.0147988322 0.0033000955
0.4371732753 0.0136083854 0.00326597873
0.4382648554 0.0146593293 0.00345335052
0.4393564036 0.00945853872 0.00357634545
0.4404479678 0.0178906662 0.00377999245
0.4415395479 0.00906623214 0.00361151431
0.442631128 0.00936244756 0.0036702574
0.4437226763 0.0106521173 0.00374977193
0.4448142404 0.0178436758 0.00403652689
0.4459058205 0.0173731178 0.00441148258
0.4469974006 0.0127865178 0.00438997385
0.4480889489 0.0104273224 0.00449660938
0.449180529 0.00857858775 0.00471121976
0.4502720932 0.0147895663 0.00521776787
0.4513636733 0.0150132454 0.00540292951
0.4524552215 0.011501102 0.00553742162
0.4535468016 0.0183703142 0.00579859178
0.4546383817 0.0109938912 0.00651201337
0.4557299459 0.00410925174 0.00706770037
0.456821526 0.00359942754 0.0077003834
0.4579130742 0.0180677897 0.00901944659
0.4590046543 0.0273814112 0.0116884774
0.4611877986 0.0394579618 0.0163925352
0.4622793469 0.0351553062 0.0208124905
0.463370927 0.0806565312 0.0441850756

