# s I dI
0.008186765547 10.6524251 0.126506539
0.009278334181 9.21902847 0.0816869406
0.01036990266 7.58103543 0.0541564178
0.01146147129 6.32552638 0.0410197168
0.01255303992 5.17411746 0.0345233083
0.01364460967 4.32953295 0.0287957444
0.01473617814 3.5299097 0.025420105
0.01582774678 2.94421152 0.0217522179
0.01691931477 2.4662765 0.0194659722
0.01801088373 2.08634735 0.0176746663
0.01910245268 1.74457351 0.015021142
0.02019402163 1.44359537 0.0137375964
0.02128558899 1.19579144 0.0120607616
0.02237715794 1.01683037 0.0110566275
0.02346872689 0.865458334 0.00994545718
0.02456029585 0.724887648 0.00887795787
0.02565186321 0.607111481 0.00819803671
0.02674343534 0.511963296 0.00727033674
0.02783500429 0.440926379 0.00680278239
0.02892657165 0.370887575 0.00610984464
0.03001814061 0.308776282 0.00563134179
0.03110970956 0.258863012 0.00521414405
0.03220127851 0.22337871 0.00470952552
0.03329284587 0.196732132 0.0044810877
0.03438441482 0.16923629 0.00409902626
0.03547598377 0.140659961 0.00381442865
0.03656755272 0.12314574 0.00364480595
0.03765912009 0.0998901886 0.0033085903
0.03875068904 0.0835334016 0.00313423008
0.03984225799 0.0722832725 0.002897508
0.04093382694 0.0617604989 0.0028358481
0.0420253943 0.0519782211 0.00267543486
0.04311696325 0.0437129346 0.00250500693
0.0442085322 0.0376117402 0.00242677283
0.04530010116 0.0333417865 0.00230098681
0.04639167011 0.0311776401 0.00223388746
0.04748323747 0.028397098 0.00217268213
0.04857480642 0.0241116386 0.00210392137
0.04966637537 0.0233336856 0.00205426062
0.05075794432 0.0190632624 0.00198005948
0.05184951168 0.0164015428 0.00193165521
0.05294108541 0.0176261706 0.00189781771
0.05403265436 0.0125370221 0.00182787639
0.05512422331 0.0154022485 0.00179387135
0.05621579067 0.014571383 0.00174667424
0.05730735963 0.0145580074 0.00174546055
0.05839892858 0.0122359851 0.00169738792
0.05949049753 0.0124732057 0.00166889359
0.06058206489 0.0144328227 0.00164109153
0.06167363384 0.013062413 0.00163737356
0.06276520279 0.00878118438 0.00160063913
0.06385677175 0.0111216938 0.00159818618
0.0649483407 0.0124470669 0.00163352315
0.06603990806 0.0124676822 0.00166949217
0.06713147701 0.0121967006 0.00163236088
0.06822304596 0.0120502177 0.00163279302
0.06931461491 0.0121545528 0.00157427708
0.07040618227 0.00988077089 0.00163551198
0.07149775123 0.00969028489 0.00160506111
0.07258932018 0.0119410867 0.00162135541
0.07368088913 0.0104425443 0.00159507042
0.07477245649 0.0122384367 0.001569199
0.07586402544 0.0108934988 0.00161828376
0.07695559439 0.0125825613 0.00159030069
0.07804716335 0.0124866035 0.00158807178
0.07913873071 0.0126710194 0.00159123687
0.08023030443 0.0133586941 0.00155736444
0.08132187338 0.0145108555 0.00158940391
0.08241344234 0.0141167931 0.00158601862
0.08350501129 0.0122411119 0.00157183788
0.08459657865 0.0162998921 0.00158101655
0.0856881476 0.0158850548 0.00155187046
0.08677971655 0.0157160625 0.00150920642
0.0878712855 0.0153690721 0.00146543169
0.08896285286 0.0142306589 0.00147100147
0.09005442182 0.0173589723 0.00147461455
0.09114599077 0.0170342993 0.00144088857
0.09223755972 0.018032943 0.00146371508
0.09332912708 0.0175874539 0.00141035447
0.09442069603 0.0170226649 0.00142825911
0.09551226498 0.0194977752 0.00139815439
0.09660383394 0.0198714489 0.00141307433
0.09769540289 0.0203750752 0.00140325974
0.09878697025 0.020381853 0.00139861884
0.0998785392 0.0226861827 0.0014006745
0.1009701082 0.0204485878 0.00135986495
0.1020616771 0.0222716124 0.00138043948
0.1031532445 0.0227552874 0.0013815618
0.1042448134 0.0208395447 0.00133902278
0.1053363824 0.0234087314 0.00134902764
0.1064279513 0.0246093509 0.00133429346
0.1075195187 0.0244737099 0.00134256142
0.1086110876 0.023851802 0.00134749688
0.1097026566 0.0233204457 0.00132960489
0.1107942255 0.0257675406 0.00132325592
0.1118857929 0.0268731877 0.00131736929
0.1129773618 0.0270907595 0.001326386
0.1140689308 0.0279560729 0.001321496
0.1151604998 0.0271350659 0.00132435914
0.1162520687 0.0252423655 0.00129769961
0.1173436361 0.0255368461 0.0012905345
0.118435205 0.025934083 0.00127997631
0.119526774 0.0250278994 0.00127754751
0.1206183429 0.0268424788 0.0012755999
0.1217099103 0.0267869985 0.00125735292
0.1228014792 0.0241844504 0.00125811906
0.1238930482 0.0267352659 0.00125535875
0.1249846171 0.0251871628 0.00123276705
0.1260761845 0.0266218405 0.00124995124
0.1271677534 0.0255835858 0.00122596279
0.1282593224 0.0266731418 0.00122557955
0.1293508913 0.0285265483 0.00124372459
0.1304424587 0.0259277562 0.0012037454
0.1315340277 0.0259366344 0.00120360375
0.1326255966 0.0250489035 0.00120192523
0.1337171656 0.0249448545 0.00119154928
0.1348087345 0.0260834548 0.00117975642
0.1359003019 0.0251097119 0.00117111039
0.1369918708 0.0242542536 0.0011888544
0.1380834398 0.0262877911 0.00116743869
0.1391750087 0.0260867403 0.00118534124
0.1402665856 0.0236577147 0.00116194494
0.1413581546 0.0250014368 0.00113925403
0.1424497235 0.0241627979 0.00114524365
0.1435412925 0.023134434 0.00112469702
0.1446328599 0.0233915186 0.00112507769
0.1457244288 0.0217750838 0.00111620595
0.1468159978 0.0215983443 0.00111451866
0.1479075667 0.022113899 0.0011236174
0.1489991341 0.0222987618 0.00113057664
0.150090703 0.0225806647 0.00114223257
0.151182272 0.0227818831 0.00112773946
0.1522738409 0.0216894404 0.0011331839
0.1533654099 0.0223954538 0.00113482384
0.1544569772 0.0221640362 0.00114061863
0.1555485462 0.0225211614 0.00115121465
0.1566401151 0.0220216877 0.00112833393
0.1577316841 0.0207782855 0.00112796113
0.1588232515 0.0223555317 0.00113767596
0.1599148284 0.0219936465 0.0011487376
0.1610063766 0.0254218097 0.00117870366
0.1620979567 0.0245337764 0.00115147634
0.1631895209 0.0257207453 0.00117530264
0.164281101 0.0279340886 0.0011670807
0.1653726493 0.0278682435 0.00118086247
0.1664642293 0.0299466565 0.00118339273
0.1675557935 0.0310249868 0.00118785211
0.1686473736 0.0328829069 0.00118867689
0.1697389219 0.0333537472 0.00116083164
0.170830502 0.0374977107 0.00118636235
0.1719220661 0.0383703636 0.00117237662
0.1730136462 0.0425010476 0.00120017841
0.1741052104 0.0453160925 0.00122102719
0.1751967746 0.0483046247 0.00121469458
0.1762883547 0.0498706953 0.00124267587
0.1773799189 0.0546666585 0.00124699891
0.178471499 0.0565295006 0.00125037125
0.1795630472 0.0587492626 0.00127820663
0.1806546273 0.0634492601 0.0012790293
0.1817461915 0.0693901909 0.00130577408
0.1828377716 0.0758621592 0.00133376621
0.1839293358 0.0779565318 0.0013497263
0.1850208999 0.0824752649 0.00135790906
0.1861124641 0.0883466229 0.00137864341
0.1872040442 0.0955568535 0.00140453463
0.1882956084 0.0987229258 0.00140209224
0.1893871885 0.10506955 0.00142558794
0.1904787367 0.110635477 0.00145168249
0.1915703168 0.116455933 0.00147669825
0.192661881 0.123821818 0.00151225992
0.1937534611 0.127581846 0.00150824315
0.1948450094 0.132441148 0.00153652353
0.1959365895 0.139822225 0.00154491732
0.1970281536 0.147989634 0.00158111175
0.1981197337 0.152696363 0.00159845278
0.199211282 0.161194093 0.00161880343
0.2003028621 0.16380172 0.00162939172
0.2013944263 0.170706389 0.00163462456
0.2024860063 0.177011049 0.00166081088
0.2035775705 0.182778788 0.00166693259
0.2046691347 0.191389616 0.00169807421
0.2057606989 0.196702751 0.00171298577
0.206852279 0.200984951 0.00171346489
0.2079438432 0.202433271 0.00172563677
0.2090354232 0.209008836 0.0017339455
0.2101269715 0.211719573 0.00174300928
0.2112185516 0.217161493 0.0017609392
0.2123101158 0.221904485 0.00175157359
0.2134016959 0.224876489 0.0017719974
0.2144932441 0.225258632 0.00176183675
0.2155848242 0.22901477 0.00177342194
0.2166763884 0.230688046 0.00176609528
0.2177679685 0.228431411 0.00175515168
0.2188595168 0.229200132 0.00175513475
0.2199510968 0.228385991 0.00174151691
0.221042661 0.229369067 0.00174331136
0.2221342411 0.228768504 0.00173226243
0.2232258053 0.225680362 0.00172382603
0.2243173695 0.222926963 0.00171018532
0.2254089336 0.219302128 0.00168948984
0.2265005137 0.21650265 0.00167921196
0.2275920779 0.212469369 0.00166081136
0.228683658 0.204293181 0.00163352156
0.2297752063 0.199585498 0.00161272614
0.2308667864 0.192957835 0.00157787565
0.2319583505 0.188399596 0.00156867811
0.2330499306 0.182502183 0.00154236688
0.2341414789 0.176731479 0.00152411567
0.235233059 0.170609321 0.00149160432
0.2363246232 0.165760819 0.00147099716
0.2374162033 0.156124019 0.00144224894
0.2385077515 0.151348915 0.00141251836
0.2395993316 0.142981425 0.00138646394
0.2406908958 0.136974892 0.0013620496
0.2417824759 0.130546169 0.00133647512
0.2428740401 0.12294216 0.00131264762
0.2439656042 0.117603382 0.00127180298
0.2450571843 0.112902809 0.00125785106
0.2461487485 0.105836547 0.00122551416
0.2472403286 0.0994021436 0.00120898625
0.2483318928 0.0934984455 0.00117469144
0.249423457 0.0889880004 0.00114782739
0.2505150211 0.0838557834 0.00113455088
0.2516066012 0.0790954694 0.00110897897
0.2526981654 0.074602365 0.00108953521
0.2537897296 0.0677039255 0.00105443563
0.2548812938 0.0657389431 0.00103923259
0.2559728738 0.0618480156 0.0010277682
0.257064438 0.0571914245 0.000996115716
0.2581560181 0.0525077775 0.000976356241
0.2592475664 0.0488886225 0.000952444138
0.2603391465 0.0465962697 0.000947216889
0.2614307106 0.0432052791 0.000939397841
0.2625222907 0.0398234775 0.000927034069
0.263613839 0.0380713161 0.000923117241
0.2647054191 0.0350021811 0.000898557196
0.2657969833 0.0320263921 0.000896224728
0.2668885634 0.0293654727 0.000884803536
0.2679801116 0.0295744346 0.0008864329
0.2690716917 0.025917813 0.000880626964
0.2701632559 0.024687195 0.000876287123
0.271254836 0.023055348 0.00087543392
0.2723464002 0.0206272497 0.000856308735
0.2734379643 0.0191096004 0.000859974102
0.2745295285 0.0178831147 0.000857231297
0.2756211086 0.0176890826 0.000851885391
0.2767126728 0.0157029262 0.000853222037
0.2778042529 0.0149243897 0.000842265256
0.2788958011 0.013728119 0.000836941891
0.2799873812 0.013927749 0.000832179317
0.2810789454 0.0126492956 0.000823403789
0.2821705255 0.0116204784 0.000832946303
0.2832620738 0.0104318427 0.000826374547
0.2843536539 0.0107688716 0.000820376333
0.285445218 0.0104891299 0.00082491703
0.2865367981 0.0101657369 0.000828613524
0.2876283464 0.0101188016 0.000824199498
0.2887199265 0.0113622981 0.000816422627
0.2898114907 0.00964193585 0.000816107923
0.2909030708 0.00907928857 0.000812909026
0.2919946349 0.00873571747 0.000823235735
0.2930861991 0.00737005444 0.000822876806
0.2941777633 0.00815569242 0.000819092368
0.2952693434 0.00737438495 0.000821638885
0.2963609076 0.00731160308 0.000830039729
0.2974524877 0.00639963372 0.000842929113
0.2985440359 0.00658303251 0.000848999345
0.299635616 0.00758420247 0.000851674642
0.3007271802 0.00691842431 0.000869316752
0.3018187603 0.00690597668 0.00085590781
0.3029103085 0.00786469226 0.000861562067
0.3040018886 0.0080435265 0.000869140012
0.3050934528 0.00800300264 0.000874942436
0.3061850329 0.00602351747 0.000876319915
0.3072765812 0.00648510481 0.000872201555
0.3083681613 0.00686316238 0.000884735121
0.3094597254 0.0074986202 0.000882572297
0.3105513055 0.00752665022 0.000890550122
0.3116428697 0.00732517214 0.000878407341
0.3127344339 0.00798915124 0.000892301978
0.3138259981 0.00550761289 0.000888873084
0.3149175781 0.00630489307 0.000886443735
0.3160091582 0.00643107161 0.000910030851
0.3171007224 0.00812861171 0.000887463096
0.3181922866 0.00570373669 0.000888438895
0.3192838667 0.00645582078 0.000895021339
0.320375415 0.00616634945 0.000901772685
0.321466995 0.00539742654 0.000896234935
0.3225585751 0.0057055777 0.000911272837
0.3236501393 0.0050532446 0.000918400123
0.3247416876 0.00633234648 0.000933556706
0.3258332677 0.00625938024 0.000927855218
0.3269248478 0.00546998627 0.000923783013
0.3280164119 0.00682067204 0.000923506552
0.3291079602 0.00652313003 0.000949680663
0.3301995403 0.00599539715 0.000936237765
0.3312911204 0.0052324411 0.000946765653
0.3323827005 0.00595992373 0.00094778163
0.3334742328 0.00599932601 0.000933787242
0.3345658129 0.00410633101 0.000956962691
0.335657393 0.00602075924 0.000941202609
0.3367489731 0.00508977433 0.000961501344
0.3378405054 0.00382379926 0.000957998405
0.3389320855 0.00520226256 0.000959918083
0.3400236656 0.00462350568 0.000979180924
0.3411152457 0.00492009323 0.000957843005
0.3422067781 0.00445787682 0.000975226431
0.3432983582 0.0047709083 0.000977089732
0.3443899383 0.00518842849 0.000981010744
0.3454815184 0.00537298335 0.000993848624
0.3465730507 0.00490899953 0.00097947619
0.3476646308 0.00488031493 0.000982716086
0.3487562109 0.00422299575 0.000983463398
0.349847791 0.00555083074 0.000993280545
0.3509393392 0.00512051327 0.00098901271
0.3520309034 0.00279535063 0.000987478497
0.3531224835 0.00312597815 0.00101328045
0.3542140636 0.00353687753 0.000984085898
0.3553056119 0.00395905046 0.0010162908
0.356397176 0.00440800131 0.00101068499
0.3574887561 0.00343388265 0.00102525284
0.3585803362 0.00524583712 0.00103011534
0.3596718845 0.00347437125 0.00100693171
0.3607634646 0.00473010828 0.00102334156
0.3618550288 0.00385074036 0.00103095783
0.3629466088 0.00430225932 0.00104254988
0.3640381571 0.00403573268 0.00102909752
0.3651297372 0.00425154263 0.00103618228
0.3662213173 0.00394906887 0.00104149835
0.3673128815 0.00407265536 0.00102037919
0.3684044297 0.0047750825 0.00106326123
0.3694960098 0.00442393456 0.00105370403
0.3705875899 0.00207328687 0.00105446665
0.37167917 0.00482172963 0.00108259699
0.3727707024 0.00277335878 0.00106111165
0.3738622825 0.00383719494 0.00107820032
0.3749538625 0.00395215293 0.00106926645
0.3760454426 0.00386219342 0.00107167323
0.377136975 0.00393408541 0.00108706053
0.3782285551 0.00260226573 0.00108370326
0.3793201352 0.00139328347 0.00113250617
0.3804117153 0.00278921411 0.00116905969
0.3815032476 0.00193861748 0.00116135165
0.3825948277 0.00281220819 0.00120536695
0.3836864078 0.00407710732 0.00124491892
0.3847779879 0.00486052217 0.00124364769
0.385869568 0.00256334318 0.00125524095
0.3869611003 0.00379265932 0.00126946254
0.3880526804 0.00270548208 0.00130388993
0.3891442605 0.00376794584 0.00132144095
0.3902358406 0.00620135801 0.0013803444
0.3913273729 0.00256156277 0.00137652245
0.392418953 0.00379790828 0.00139833933
0.3935105331 0.00303489445 0.00142860747
0.3946021132 0.00459479875 0.00143695083
0.3956936456 0.00184444218 0.00146992472
0.3967852257 0.00118950985 0.0014934929
0.3978768058 0.000862208981 0.00155855044
0.3989683858 0.00435332693 0.00155107917
0.4000599341 0.00349252875 0.00155044664
0.4011514983 0.00423014537 0.00157590111
0.4022430784 0.00332857596 0.00157851533
0.4033346585 0.00318428513 0.00162118046
0.4044262067 0.00205116816 0.00162666588
0.4055177868 0.00174315997 0.00161278295
0.406609351 0.00505217882 0.00165982399
0.4077009311 0.00241588847 0.0016976268
0.4087924794 0.000659350239 0.00174910406
0.4098840595 0.00285203501 0.00173771441
0.4109756395 0.00368526468 0.00174472752
0.4120672037 0.00274312457 0.00175730576
0.4142503321 0.00415987753 0.0017611615
0.4153419122 0.00320679497 0.00180443487
0.4164334763 0.00195773789 0.00185518394
0.4175250246 0.00275088391 0.00194685614
0.4186166047 0.00139360363 0.00193388603
0.4197081848 0.00210447721 0.0019253303
0.4207997649 0.00533597024 0.00200804077
0.4218912972 0.00103509878 0.00206731937
0.4229828773 0.00308558673 0.00195098373
0.4240744574 0.0027591683 0.00203980833
0.4251660375 0.00163808667 0.00212652167
0.4262575699 0.00392948732 0.00209276991
0.4273491499 0.00495651116 0.00214618578
0.42844073 0.00150811638 0.00220814505
0.4295323101 0.00188817827 0.00225514978
0.4306238425 0.000804661197 0.00236167479
0.4317154226 0.00108289193 0.0023157386
0.4328070027 0.00411594378 0.00238593631
0.4338985828 0.00503141489 0.00245536378
0.4349901151 0.00371537338 0.00256385696
0.4360816952 0.00255555258 0.0025754951
0.4371732753 0.00136250771 0.00263513925
0.4382648554 0.000784858101 0.00258818147
0.4393564036 0.00215410472 0.00273606754
0.4404479678 0.00233247433 0.00276278328
0.442631128 0.00283246403 0.0029378121
0.4437226763 0.00465107052 0.00314228921
0.4448142404 0.00605105995 0.00313464909
0.4459058205 0.00290091947 0.00328293283
0.4469974006 0.00334816524 0.00346787433
0.4480889489 0.00615274729 0.00361011472
0.449180529 0.00600944024 0.0035580076
0.4502720932 0.00523303755 0.00419322916
0.4513636733 0.00315001819 0.00430371661
0.4524552215 0.0079240347 0.00410106114
0.4535468016 0.00577671809 0.00439275427
0.456821526 0.00496671599 0.00633692474
0.4590046543 0.00226097096 0.00809947724
0.4600962344 0.0102961315 0.0100774626
0.4611877986 0.00274239625 0.0105062842

