# s I dI
0.008186765547 35.3638449 0.298560184
0.009278334181 28.7024473 0.224662128
0.01036990266 22.9293743 0.172159111
0.01146147129 18.2372963 0.139921992
0.01255303992 14.7136019 0.121105426
0.01364460967 12.4749897 0.102758315
0.01473617814 10.4079183 0.0923926803
0.01582774678 8.70194936 0.0795013788
0.01691931477 7.42259624 0.0718890809
0.01801088373 6.38958187 0.0655926734
0.01910245268 5.5375484 0.0569312433
0.02019402163 4.82039927 0.0531871259
0.02128558899 4.2290783 0.0475050935
0.02237715794 3.76315876 0.0442855125
0.02346872689 3.34440471 0.0406449349
0.02456029585 2.99976667 0.0374251756
0.02565186321 2.66830025 0.0350619942
0.02674343534 2.40021824 0.0317539244
0.02783500429 2.1576557 0.0301258214
0.02892657165 2.01964963 0.0282956777
0.03001814061 1.79221522 0.0262527844
0.03110970956 1.66007029 0.0251193408
0.03220127851 1.48385134 0.0228149537
0.03329284587 1.36004254 0.0219470867
0.03438441482 1.25654483 0.0204705291
0.03547598377 1.17290661 0.0196295865
0.03656755272 1.07553821 0.0187018582
0.03765912009 0.97826584 0.0171281115
0.03875068904 0.950386328 0.0170425393
0.03984225799 0.902417692 0.016151045
0.04093382694 0.843880442 0.0155860219
0.0420253943 0.788062904 0.0148420893
0.04311696325 0.744120535 0.0141730475
0.0442085322 0.686913495 0.0136087306
0.04530010116 0.643777185 0.012814282
0.04639167011 0.602986165 0.0124556573
0.04748323747 0.571397148 0.0118885816
0.04857480642 0.532208904 0.0113977763
0.04966637537 0.517903884 0.0112199832
0.05075794432 0.506959738 0.0107681046
0.05184951168 0.473849741 0.0105246337
0.05294108541 0.432113402 0.00988005865
0.05403265436 0.417378752 0.00964717472
0.05512422331 0.407692511 0.00952487071
0.05621579067 0.391962106 0.00905877966
0.05730735963 0.375185674 0.00894293116
0.05839892858 0.356366699 0.00856229511
0.05949049753 0.353488154 0.00853401706
0.06058206489 0.331810587 0.00817853224
0.06167363384 0.3232281 0.00795671369
0.06276520279 0.313412557 0.00787842948
0.06385677175 0.296815606 0.00756091624
0.0649483407 0.303564689 0.00782536553
0.06603990806 0.288513469 0.00764132244
0.06713147701 0.285967683 0.00762599368
0.06822304596 0.273702645 0.00755094236
0.06931461491 0.274384819 0.00740016025
0.07040618227 0.28483776 0.00765432319
0.07149775123 0.273702779 0.00743165237
0.07258932018 0.258475841 0.00726183814
0.07368088913 0.269389608 0.00743571589
0.07477245649 0.255073657 0.00708414647
0.07586402544 0.264180303 0.00731410575
0.07695559439 0.25174211 0.00705845366
0.07804716335 0.255641591 0.00716583348
0.07913873071 0.269684466 0.00726906779
0.08023030443 0.25831889 0.00708106362
0.08132187338 0.25920769 0.00714989594
0.08241344234 0.25863611 0.00700773993
0.08350501129 0.266578932 0.00716375369
0.08459657865 0.272574254 0.0070866629
0.0856881476 0.272910898 0.00693577768
0.08677971655 0.265700019 0.00675659894
0.0878712855 0.256533841 0.00648852183
0.08896285286 0.256123776 0.00648664302
0.09005442182 0.26084717 0.00642116714
0.09114599077 0.261105218 0.00641899227
0.09223755972 0.253304003 0.00628897521
0.09332912708 0.25294899 0.0061501656
0.09442069603 0.254398681 0.00615484212
0.09551226498 0.250031791 0.00604212442
0.09660383394 0.249462771 0.00600960115
0.09769540289 0.247769157 0.00593578948
0.09878697025 0.251615694 0.0059183338
0.0998785392 0.240190142 0.00577742054
0.1009701082 0.244451057 0.00573463512
0.1020616771 0.243689434 0.00573930683
0.1031532445 0.243061846 0.00568057114
0.1042448134 0.241431921 0.00563102869
0.1053363824 0.241400112 0.00558118283
0.1064279513 0.244655383 0.00556232207
0.1075195187 0.232356191 0.005442307
0.1086110876 0.232691505 0.00538959327
0.1097026566 0.234979927 0.00540634413
0.1107942255 0.229372356 0.00531685975
0.1118857929 0.238735798 0.00535316904
0.1129773618 0.233551338 0.00529242323
0.1140689308 0.223466991 0.00513838095
0.1151604998 0.233013841 0.0052146062
0.1162520687 0.226794684 0.00512750596
0.1173436361 0.218053976 0.00501236628
0.118435205 0.225348519 0.00507685151
0.119526774 0.223349694 0.00499712093
0.1206183429 0.211892072 0.00489119527
0.1217099103 0.213533616 0.00485256998
0.1228014792 0.206588791 0.00478080864
0.1238930482 0.209150215 0.00479880856
0.1249846171 0.207540047 0.00468602869
0.1260761845 0.207688476 0.00473119382
0.1271677534 0.202319776 0.00462164737
0.1282593224 0.198471074 0.00460239535
0.1293508913 0.193906802 0.00451393201
0.1304424587 0.191137422 0.00443767175
0.1315340277 0.185073878 0.00440635691
0.1326255966 0.186422639 0.00435517596
0.1337171656 0.182456539 0.00432184603
0.1348087345 0.180661483 0.00427910419
0.1359003019 0.170001233 0.00414282176
0.1369918708 0.166695738 0.00411891823
0.1380834398 0.160685993 0.00399653039
0.1391750087 0.163916765 0.00404528712
0.1402665856 0.160974124 0.00397952348
0.1413581546 0.159556094 0.00395915567
0.1424497235 0.156396944 0.00393191065
0.1435412925 0.159201672 0.00388870076
0.1446328599 0.154122076 0.00387325876
0.1457244288 0.148330931 0.00377081867
0.1468159978 0.145601762 0.00375171746
0.1479075667 0.148233584 0.00381938529
0.1489991341 0.142218542 0.00377419814
0.150090703 0.142352632 0.00380455672
0.151182272 0.14957139 0.00385045165
0.1522738409 0.148589048 0.00387288001
0.1533654099 0.145908134 0.00382785
0.1544569772 0.144811436 0.00382330514
0.1555485462 0.154438448 0.00394535929
0.1566401151 0.15754744 0.00394311482
0.1577316841 0.156331329 0.00396145312
0.1588232515 0.15964524 0.00396957729
0.1599148284 0.165674277 0.0040484987
0.1610063766 0.173855192 0.00415513729
0.1620979567 0.171395606 0.00406429403
0.1631895209 0.179140935 0.00419309842
0.164281101 0.181549368 0.00415664567
0.1653726493 0.18789113 0.00425388452
0.1664642293 0.187634677 0.00423971819
0.1675557935 0.200328442 0.00434117212
0.1686473736 0.212655505 0.0044006588
0.1697389219 0.222594992 0.00439919717
0.170830502 0.221724516 0.00439203062
0.1719220661 0.234378658 0.00443890958
0.1730136462 0.245109199 0.00450086147
0.1741052104 0.257257109 0.00460746773
0.1751967746 0.264321098 0.00458560357
0.1762883547 0.289197388 0.00478587425
0.1773799189 0.3083411 0.00486791594
0.178471499 0.313854171 0.00490035978
0.1795630472 0.326823118 0.00499861727
0.1806546273 0.339718032 0.0050013291
0.1817461915 0.350243374 0.00510371398
0.1828377716 0.372122427 0.00518672694
0.1839293358 0.385716196 0.00528487101
0.1850208999 0.397047259 0.0053207907
0.1861124641 0.407452878 0.00535377948
0.1872040442 0.411613967 0.00538917474
0.1882956084 0.421494271 0.00537497601
0.1893871885 0.43712902 0.00549007678
0.1904787367 0.442599695 0.00547535595
0.1915703168 0.44949049 0.0055124754
0.192661881 0.453143129 0.00553390381
0.1937534611 0.458692779 0.0054868192
0.1948450094 0.47197406 0.00559867347
0.1959365895 0.483047896 0.005594788
0.1970281536 0.481463314 0.00559109667
0.1981197337 0.482704387 0.00558305064
0.199211282 0.490879659 0.00557987614
0.2003028621 0.497706555 0.00564088478
0.2013944263 0.495562686 0.0055666521
0.2024860063 0.509551531 0.00566175375
0.2035775705 0.511743373 0.00562563207
0.2046691347 0.510955777 0.00561549362
0.2057606989 0.521531323 0.0056683175
0.206852279 0.519396168 0.00559453858
0.2079438432 0.529859028 0.00566252657
0.2090354232 0.534756206 0.00564678247
0.2101269715 0.540109289 0.00567252598
0.2112185516 0.541192515 0.00567443877
0.2123101158 0.553165809 0.00567644229
0.2134016959 0.555867186 0.0057063248
0.2144932441 0.554714996 0.00566008108
0.2155848242 0.559776813 0.0056776292
0.2166763884 0.574142171 0.00573215826
0.2177679685 0.582903746 0.00574692282
0.2188595168 0.582035755 0.00573635472
0.2199510968 0.594226491 0.0057531343
0.221042661 0.592341051 0.00575132483
0.2221342411 0.601920763 0.00576194838
0.2232258053 0.598257149 0.0057391364
0.2243173695 0.598414536 0.00573171277
0.2254089336 0.592895278 0.00567307442
0.2265005137 0.591110213 0.00567309859
0.2275920779 0.580360285 0.00558733545
0.228683658 0.574187863 0.0055504079
0.2297752063 0.560556978 0.0054765616
0.2308667864 0.559270426 0.00543384219
0.2319583505 0.536497903 0.00533554492
0.2330499306 0.524671399 0.00525004381
0.2341414789 0.499616223 0.00513165879
0.235233059 0.482725889 0.00503381032
0.2363246232 0.455096856 0.00487380177
0.2374162033 0.443282013 0.00481952938
0.2385077515 0.418264948 0.00464765624
0.2395993316 0.398352301 0.00455477227
0.2406908958 0.382858834 0.00443971544
0.2417824759 0.357126676 0.00431182463
0.2428740401 0.342416662 0.00422492598
0.2439656042 0.319255662 0.00404687937
0.2450571843 0.30837076 0.00400650509
0.2461487485 0.288949932 0.00385890258
0.2472403286 0.274506863 0.00378321257
0.2483318928 0.261296724 0.00368189963
0.249423457 0.251069024 0.00359707184
0.2505150211 0.239162194 0.00353362033
0.2516066012 0.223556604 0.00340122925
0.2526981654 0.213155966 0.00334091353
0.2537897296 0.203214138 0.00325530423
0.2548812938 0.197940526 0.00320744665
0.2559728738 0.187646172 0.00314299662
0.257064438 0.174497621 0.00300925547
0.2581560181 0.166240711 0.00296995551
0.2592475664 0.153457975 0.00285816708
0.2603391465 0.147349419 0.00280847837
0.2614307106 0.14234496 0.00278863684
0.2625222907 0.132824027 0.00272503528
0.263613839 0.123941615 0.00266622436
0.2647054191 0.117389754 0.0026016987
0.2657969833 0.10896763 0.0025497382
0.2668885634 0.10851015 0.00254619395
0.2679801116 0.103212061 0.00250537718
0.2690716917 0.0983385661 0.00246288558
0.2701632559 0.0912890866 0.00241985644
0.271254836 0.0850922055 0.00239695742
0.2723464002 0.0800809235 0.00235195238
0.2734379643 0.077316522 0.00233870583
0.2745295285 0.0720692041 0.00229978085
0.2756211086 0.0701865092 0.0022495419
0.2767126728 0.0648226608 0.00221184997
0.2778042529 0.0629834092 0.00217991256
0.2788958011 0.0625405741 0.00219939033
0.2799873812 0.0608382028 0.00217715608
0.2810789454 0.0546873279 0.00211253159
0.2821705255 0.0566981524 0.0021312602
0.2832620738 0.0514894803 0.00206116687
0.2843536539 0.0472929794 0.00203885575
0.285445218 0.0443917224 0.0020146822
0.2865367981 0.0449854834 0.0020190011
0.2876283464 0.0466748607 0.00204899186
0.2887199265 0.0425694766 0.00197275677
0.2898114907 0.0398964965 0.00195698811
0.2909030708 0.0384275396 0.00192676895
0.2919946349 0.0396980209 0.00194998407
0.2930861991 0.0369802794 0.00191187579
0.2941777633 0.0349154553 0.00188536825
0.2952693434 0.0361465862 0.0019167029
0.2963609076 0.0330650734 0.0018898624
0.2974524877 0.0328806182 0.0019173852
0.2985440359 0.0310784345 0.00188572129
0.299635616 0.0286426487 0.00187960168
0.3007271802 0.0311091747 0.00193239397
0.3018187603 0.0314096984 0.00192129562
0.3029103085 0.0261413023 0.00188871076
0.3040018886 0.0273344298 0.00189911234
0.3050934528 0.0282546709 0.00191296747
0.3061850329 0.0306704543 0.00195194966
0.3072765812 0.0282247979 0.00192618011
0.3083681613 0.0260080435 0.0019142176
0.3094597254 0.0265581096 0.0019097324
0.3105513055 0.0251556654 0.00189966014
0.3116428697 0.0258724678 0.00190714529
0.3127344339 0.0276184575 0.00192883453
0.3138259981 0.0244038242 0.00192099407
0.3149175781 0.0228727395 0.00186694129
0.3160091582 0.0248427711 0.00194489201
0.3171007224 0.026067792 0.00193753301
0.3181922866 0.0244781861 0.00189796225
0.3192838667 0.0239677215 0.00190602575
0.320375415 0.0246428006 0.00194131579
0.321466995 0.0256460686 0.00198529645
0.3225585751 0.0262191879 0.00197553893
0.3236501393 0.023184639 0.00194639139
0.3247416876 0.0265705218 0.00199698575
0.3258332677 0.0242941964 0.00198423223
0.3269248478 0.0187526073 0.00192101374
0.3280164119 0.0226657572 0.00194907551
0.3291079602 0.0236865174 0.00201264687
0.3301995403 0.0252589688 0.00201356913
0.3312911204 0.0260302443 0.00207003506
0.3323827005 0.02313439 0.00204227744
0.3334742328 0.0235494867 0.00201416129
0.3345658129 0.0225353533 0.00199618198
0.335657393 0.0234034892 0.00200705336
0.3367489731 0.0237449924 0.00205418322
0.3378405054 0.0214832533 0.00202512833
0.3389320855 0.0266937251 0.00211051602
0.3400236656 0.0220422089 0.00207851036
0.3411152457 0.0227951587 0.00204389571
0.3422067781 0.0260438276 0.00213913154
0.3432983582 0.0233649843 0.00207470739
0.3443899383 0.0212593675 0.00205793596
0.3454815184 0.0216134266 0.00207568339
0.3465730507 0.0220880466 0.0020622053
0.3476646308 0.0217562941 0.00211111505
0.3487562109 0.0205057169 0.00205881826
0.349847791 0.0184712529 0.00205370447
0.3509393392 0.0232029695 0.00215115039
0.3520309034 0.0207820532 0.00207676136
0.3531224835 0.0229633227 0.00217531599
0.3542140636 0.0187783692 0.00205224492
0.3553056119 0.0211424499 0.00215923884
0.356397176 0.0193342229 0.00209955618
0.3574887561 0.018710679 0.00211034529
0.3585803362 0.0143234626 0.00204627215
0.3596718845 0.0181330889 0.00209858089
0.3607634646 0.0174998169 0.00212662293
0.3618550288 0.0205339553 0.00215273053
0.3629466088 0.0167504131 0.00212268712
0.3640381571 0.0207736433 0.00217947607
0.3651297372 0.0166593727 0.00209190451
0.3662213173 0.0152433917 0.00207457417
0.3673128815 0.0168739565 0.00210576659
0.3684044297 0.0180381643 0.00216633374
0.3694960098 0.0167672016 0.00211230179
0.3705875899 0.0154401702 0.00211867878
0.37167917 0.018621695 0.00222773798
0.3727707024 0.0150518394 0.00211179266
0.3738622825 0.0184711116 0.00222296844
0.3749538625 0.0145671279 0.00212066787
0.3760454426 0.0183430822 0.00221858393
0.377136975 0.0205335681 0.00225526515
0.3782285551 0.0155905216 0.00219712437
0.3793201352 0.0140659279 0.00226872676
0.3804117153 0.0168215992 0.00236739677
0.3815032476 0.0140553808 0.00236814911
0.3825948277 0.0175242937 0.00252448764
0.3836864078 0.0196768044 0.00257391995
0.3847779879 0.0149380703 0.00252829349
0.385869568 0.0128656691 0.00252874852
0.3869611003 0.0146039675 0.00257437121
0.3880526804 0.0156847246 0.00269711758
0.3891442605 0.0134162318 0.00267841028
0.3902358406 0.0154113622 0.00274017949
0.3913273729 0.0171307145 0.00290248149
0.392418953 0.0157642762 0.00285601042
0.3935105331 0.013105259 0.0028091652
0.3946021132 0.0175185925 0.00298466029
0.3956936456 0.0148651916 0.00292270417
0.3967852257 0.0129499577 0.00296722846
0.3978768058 0.0114122647 0.00295493619
0.3989683858 0.0128260994 0.00311765573
0.4000599341 0.0135383985 0.00314581969
0.4011514983 0.0121201699 0.00312934559
0.4022430784 0.0133268316 0.00324244333
0.4033346585 0.0139616161 0.0032264332
0.4044262067 0.0132719804 0.00323379976
0.4055177868 0.0127970942 0.00328029371
0.406609351 0.0105073913 0.0032506315
0.4077009311 0.0146434461 0.00346567062
0.4087924794 0.0116490952 0.00338419913
0.4098840595 0.0109220479 0.00338462371
0.4109756395 0.01681394 0.00362781686
0.4120672037 0.0211200945 0.00371044074
0.413158752 0.0165067847 0.00366915409
0.4142503321 0.0197280287 0.00388557259
0.4153419122 0.0204072936 0.00404897202
0.4164334763 0.0158344687 0.00382119161
0.4175250246 0.0132443506 0.00371014415
0.4186166047 0.0134559578 0.00384905166
0.4197081848 0.0191157197 0.00415771293
0.4207997649 0.0121799861 0.00387554787
0.4218912972 0.0122355451 0.00408949227
0.4229828773 0.0196787326 0.00430359489
0.4240744574 0.0143905843 0.0041369582
0.4251660375 0.0128422187 0.00430130157
0.4262575699 0.0165708545 0.00448319964
0.4273491499 0.0128214644 0.00438246703
0.42844073 0.0154546808 0.00463354819
0.4295323101 0.0141463572 0.00454105822
0.4306238425 0.0112667552 0.00437171367
0.4317154226 0.00926103096 0.00448935713
0.4328070027 0.0128202573 0.00476770609
0.4338985828 0.015609874 0.00490313386
0.4349901151 0.0117660884 0.00483940483
0.4360816952 0.0132558859 0.00507833647
0.4371732753 0.0152652104 0.00520953218
0.4382648554 0.0122052508 0.00525724323
0.4393564036 0.0136498413 0.00576484349
0.4404479678 0.0161941867 0.00584479379
0.4415395479 0.0161254406 0.00603686961
0.442631128 0.0121827895 0.00587158388
0.4437226763 0.0176700835 0.00631549576
0.4448142404 0.0171391804 0.00633360464
0.4459058205 0.0169939269 0.00690706044
0.4469974006 0.0148863098 0.00699725525
0.4480889489 0.0183405615 0.00757819268
0.449180529 0.0149725981 0.00778175361
0.4502720932 0.0164802253 0.00828622609
0.4513636733 0.0308310812 0.0097547396
0.4524552215 0.0106062469 0.00850667264
0.4535468016 0.0261442857 0.0099786099
0.4546383817 0.0058517145 0.00949250902
0.4579130742 0.0117199306 0.0132496298
0.4590046543 0.0095995151 0.0155656897
0.4611877986 0.0161776557 0.0216572769
0.4622793469 0.0020349816 0.0239904768

